0.008,-10.625699,-11.64873,-10.447465
0.012,-7.68012,-10.625699,-11.64873
0.016,-5.476296,-7.68012,-10.625699
0.02,-5.802084,-5.476296,-7.68012
0.024,-7.641282,-5.802084,-5.476296
0.028,-9.079575,-7.641282,-5.802084
0.032,-9.147628,-9.079575,-7.641282
0.036,-8.095759,-9.147628,-9.079575
0.04,-6.798523,-8.095759,-9.147628
0.044,-5.682462,-6.798523,-8.095759
0.048,-4.332841,-5.682462,-6.798523
0.052,-2.083515,-4.332841,-5.682462
0.056,0.793631,-2.083515,-4.332841
0.06,3.300418,0.793631,-2.083515
0.064,4.95609,3.300418,0.793631
0.068,5.540956,4.95609,3.300418
0.072,4.601199,5.540956,4.95609
0.076,2.191974,4.601199,5.540956
0.08,-0.477338,2.191974,4.601199
0.084,-2.172346,-0.477338,2.191974
0.088,-3.207602,-2.172346,-0.477338
0.092,-4.678211,-3.207602,-2.172346
0.096,-6.751313,-4.678211,-3.207602
0.1,-8.097,-6.751313,-4.678211
0.104,-7.007811,-8.097,-6.751313
0.108,-3.433557,-7.007811,-8.097
0.112,0.929859,-3.433557,-7.007811
0.116,4.417739,0.929859,-3.433557
0.12,6.626115,4.417739,0.929859
0.124,8.063925,6.626115,4.417739
0.128,9.124469,8.063925,6.626115
0.132,9.781333,9.124469,8.063925
0.136,9.632328,9.781333,9.124469
0.14,8.375528,9.632328,9.781333
0.144,6.655721,8.375528,9.632328
0.148,5.524429,6.655721,8.375528
0.152,5.252173,5.524429,6.655721
0.156,4.900049,5.252173,5.524429
0.16,3.388557,4.900049,5.252173
0.164,0.592966,3.388557,4.900049
0.168,-2.871025,0.592966,3.388557
0.172,-5.721913,-2.871025,0.592966
0.176,-6.366265,-5.721913,-2.871025
0.18,-4.4412,-6.366265,-5.721913
0.184,-1.799527,-4.4412,-6.366265
0.188,-1.150312,-1.799527,-4.4412
0.192,-2.956918,-1.150312,-1.799527
0.196,-5.073552,-2.956918,-1.150312
0.2,-5.419029,-5.073552,-2.956918
0.204,-3.601447,-5.419029,-5.073552
0.208,-0.43236,-3.601447,-5.419029
0.212,3.294097,-0.43236,-3.601447
0.216,6.848562,3.294097,-0.43236
0.22,9.515635,6.848562,3.294097
0.224,10.989871,9.515635,6.848562
0.228,11.033595,10.989871,9.515635
0.232,9.468094,11.033595,10.989871
0.236,6.58876,9.468094,11.033595
0.24,3.365622,6.58876,9.468094
0.244,1.134204,3.365622,6.58876
0.248,0.594872,1.134204,3.365622
0.252,1.353434,0.594872,1.134204
0.256,2.121938,1.353434,0.594872
0.26,1.615265,2.121938,1.353434
0.264,-0.52578,1.615265,2.121938
0.268,-3.745254,-0.52578,1.615265
0.272,-6.90674,-3.745254,-0.52578
0.276,-8.947811,-6.90674,-3.745254
0.28,-9.546391,-8.947811,-6.90674
0.284,-8.992352,-9.546391,-8.947811
0.288,-7.590408,-8.992352,-9.546391
0.292,-5.096181,-7.590408,-8.992352
0.296,-1.52753,-5.096181,-7.590408
0.3,1.85338,-1.52753,-5.096181
0.304,3.825686,1.85338,-1.52753
0.308,4.640648,3.825686,1.85338
0.312,5.128723,4.640648,3.825686
0.316,4.980987,5.128723,4.640648
0.32,3.609636,4.980987,5.128723
0.324,1.771121,3.609636,4.980987
0.328,0.279729,1.771121,3.609636
0.332,-1.237995,0.279729,1.771121
0.336,-3.279276,-1.237995,0.279729
0.34,-5.158512,-3.279276,-1.237995
0.344,-5.767878,-5.158512,-3.279276
0.348,-5.336726,-5.767878,-5.158512
0.352,-4.90966,-5.336726,-5.767878
0.356,-4.888657,-4.90966,-5.336726
0.36,-4.847996,-4.888657,-4.90966
0.364,-4.167151,-4.847996,-4.888657
0.368,-2.687903,-4.167151,-4.847996
0.372,-0.744073,-2.687903,-4.167151
0.376,0.989652,-0.744073,-2.687903
0.38,2.380502,0.989652,-0.744073
0.384,4.315159,2.380502,0.989652
0.388,7.025374,4.315159,2.380502
0.392,9.358485,7.025374,4.315159
0.396,10.378086,9.358485,7.025374
0.4,10.50004,10.378086,9.358485
0.404,10.206945,10.50004,10.378086
0.408,9.028646,10.206945,10.50004
0.412,6.998278,9.028646,10.206945
0.416,4.886145,6.998278,9.028646
0.42,2.550429,4.886145,6.998278
0.424,-0.72424,2.550429,4.886145
0.428,-4.364046,-0.72424,2.550429
0.432,-6.36105,-4.364046,-0.72424
0.436,-5.822595,-6.36105,-4.364046
0.44,-4.293989,-5.822595,-6.36105
0.444,-3.616896,-4.293989,-5.822595
0.448,-3.546337,-3.616896,-4.293989
0.452,-2.354146,-3.546337,-3.616896
0.456,0.327962,-2.354146,-3.546337
0.46,2.980484,0.327962,-2.354146
0.464,4.488467,2.980484,0.327962
0.468,4.843656,4.488467,2.980484
0.472,4.370599,4.843656,4.488467
0.476,3.581831,4.370599,4.843656
0.48,3.423354,3.581831,4.370599
0.484,4.306008,3.423354,3.581831
0.488,4.881134,4.306008,3.423354
0.492,3.48446,4.881134,4.306008
0.496,0.419458,3.48446,4.881134
0.5,-2.093605,0.419458,3.48446
0.504,-2.389454,-2.093605,0.419458
0.508,-1.397418,-2.389454,-2.093605
0.512,-1.062404,-1.397418,-2.389454
0.516,-1.93108,-1.062404,-1.397418
0.52,-3.088659,-1.93108,-1.062404
0.524,-3.117272,-3.088659,-1.93108
0.528,-0.796762,-3.117272,-3.088659
0.532,3.956193,-0.796762,-3.117272
0.536,8.92669,3.956193,-0.796762
0.54,11.309989,8.92669,3.956193
0.544,10.711292,11.309989,8.92669
0.548,8.788079,10.711292,11.309989
0.552,7.171218,8.788079,10.711292
0.556,6.719204,7.171218,8.788079
0.56,7.80224,6.719204,7.171218
0.564,9.808915,7.80224,6.719204
0.568,10.914987,9.808915,7.80224
0.572,9.96916,10.914987,9.808915
0.576,7.74932,9.96916,10.914987
0.58,5.915281,7.74932,9.96916
0.584,5.347969,5.915281,7.74932
0.588,5.813526,5.347969,5.915281
0.592,6.80395,5.813526,5.347969
0.596,7.722353,6.80395,5.813526
0.6,7.845965,7.722353,6.80395
0.604,6.925154,7.845965,7.722353
0.608,5.666246,6.925154,7.845965
0.612,5.291659,5.666246,6.925154
0.616,5.948555,5.291659,5.666246
0.62,6.498439,5.948555,5.291659
0.624,5.988588,6.498439,5.948555
0.628,4.315279,5.988588,6.498439
0.632,2.214738,4.315279,5.988588
0.636,0.785863,2.214738,4.315279
0.64,0.583905,0.785863,2.214738
0.644,1.081437,0.583905,0.785863
0.648,1.334326,1.081437,0.583905
0.652,1.318344,1.334326,1.081437
0.656,1.440327,1.318344,1.334326
0.66,1.566103,1.440327,1.318344
0.664,1.413647,1.566103,1.440327
0.668,1.089228,1.413647,1.566103
0.672,0.865966,1.089228,1.413647
0.676,0.267859,0.865966,1.089228
0.68,-1.159395,0.267859,0.865966
0.684,-2.20519,-1.159395,0.267859
0.688,-1.284504,-2.20519,-1.159395
0.692,1.240388,-1.284504,-2.20519
0.696,3.638274,1.240388,-1.284504
0.7,5.358795,3.638274,1.240388
0.704,7.120109,5.358795,3.638274
0.708,8.716461,7.120109,5.358795
0.712,9.251189,8.716461,7.120109
0.716,8.538605,9.251189,8.716461
0.72,7.260773,8.538605,9.251189
0.724,5.972672,7.260773,8.538605
0.728,4.283987,5.972672,7.260773
0.732,1.677197,4.283987,5.972672
0.736,-1.483186,1.677197,4.283987
0.74,-4.249854,-1.483186,1.677197
0.744,-6.002492,-4.249854,-1.483186
0.748,-6.643378,-6.002492,-4.249854
0.752,-6.063363,-6.643378,-6.002492
0.756,-4.597739,-6.063363,-6.643378
0.76,-2.994231,-4.597739,-6.063363
0.764,-1.535299,-2.994231,-4.597739
0.768,-0.114828,-1.535299,-2.994231
0.772,1.18354,-0.114828,-1.535299
0.776,1.699535,1.18354,-0.114828
0.78,0.669684,1.699535,1.18354
0.784,-1.633665,0.669684,1.699535
0.788,-4.023966,-1.633665,0.669684
0.792,-5.422812,-4.023966,-1.633665
0.796,-5.547582,-5.422812,-4.023966
0.8,-4.760846,-5.547582,-5.422812
0.804,-4.040814,-4.760846,-5.547582
0.808,-4.632876,-4.040814,-4.760846
0.812,-6.23144,-4.632876,-4.040814
0.816,-7.025951,-6.23144,-4.632876
0.82,-6.233419,-7.025951,-6.23144
0.824,-5.048447,-6.233419,-7.025951
0.828,-4.856247,-5.048447,-6.233419
0.832,-5.401625,-4.856247,-5.048447
0.836,-5.631895,-5.401625,-4.856247
0.84,-5.060018,-5.631895,-5.401625
0.844,-3.656482,-5.060018,-5.631895
0.848,-1.707728,-3.656482,-5.060018
0.852,0.082694,-1.707728,-3.656482
0.856,0.615373,0.082694,-1.707728
0.86,-0.400592,0.615373,0.082694
0.864,-1.642389,-0.400592,0.615373
0.868,-1.863843,-1.642389,-0.400592
0.872,-1.472414,-1.863843,-1.642389
0.876,-1.829544,-1.472414,-1.863843
0.88,-3.619441,-1.829544,-1.472414
0.884,-6.534015,-3.619441,-1.829544
0.888,-9.813767,-6.534015,-3.619441
0.892,-12.145862,-9.813767,-6.534015
0.896,-12.566889,-12.145862,-9.813767
0.9,-11.522841,-12.566889,-12.145862
0.904,-10.130525,-11.522841,-12.566889
0.908,-8.82994,-10.130525,-11.522841
0.912,-7.193364,-8.82994,-10.130525
0.916,-5.079112,-7.193364,-8.82994
0.92,-3.103163,-5.079112,-7.193364
0.924,-2.012866,-3.103163,-5.079112
0.928,-2.4503,-2.012866,-3.103163
0.932,-4.593376,-2.4503,-2.012866
0.936,-7.623059,-4.593376,-2.4503
0.94,-9.852718,-7.623059,-4.593376
0.944,-10.021381,-9.852718,-7.623059
0.948,-8.7013,-10.021381,-9.852718
0.952,-7.525825,-8.7013,-10.021381
0.956,-7.415721,-7.525825,-8.7013
0.96,-7.974893,-7.415721,-7.525825
0.964,-8.497108,-7.974893,-7.415721
0.968,-9.108172,-8.497108,-7.974893
0.972,-9.904222,-9.108172,-8.497108
0.976,-10.194016,-9.904222,-9.108172
0.98,-9.210011,-10.194016,-9.904222
0.984,-7.042084,-9.210011,-10.194016
0.988,-4.707142,-7.042084,-9.210011
0.992,-3.186014,-4.707142,-7.042084
0.996,-2.720026,-3.186014,-4.707142
1,-2.498134,-2.720026,-3.186014
1.004,-1.424875,-2.498134,-2.720026
1.008,0.454725,-1.424875,-2.498134
1.012,2.049978,0.454725,-1.424875
1.016,1.953679,2.049978,0.454725
1.02,-0.564573,1.953679,2.049978
1.024,-4.509776,-0.564573,1.953679
1.028,-7.172301,-4.509776,-0.564573
1.032,-5.87815,-7.172301,-4.509776
1.036,-0.94267,-5.87815,-7.172301
1.04,4.214026,-0.94267,-5.87815
1.044,6.681322,4.214026,-0.94267
1.048,6.604382,6.681322,4.214026
1.052,5.775618,6.604382,6.681322
1.056,5.213799,5.775618,6.604382
1.06,5.460435,5.213799,5.775618
1.064,7.256964,5.460435,5.213799
1.068,10.378859,7.256964,5.460435
1.072,13.581966,10.378859,7.256964
1.076,15.871306,13.581966,10.378859
1.08,17.174818,15.871306,13.581966
1.084,17.708931,17.174818,15.871306
1.088,17.330725,17.708931,17.174818
1.092,16.285801,17.330725,17.708931
1.096,15.249102,16.285801,17.330725
1.1,14.299831,15.249102,16.285801
1.104,12.961533,14.299831,15.249102
1.108,11.166221,12.961533,14.299831
1.112,9.739655,11.166221,12.961533
1.116,9.454494,9.739655,11.166221
1.12,10.501521,9.454494,9.739655
1.124,12.636733,10.501521,9.454494
1.128,14.89633,12.636733,10.501521
1.132,16.012075,14.89633,12.636733
1.136,15.423062,16.012075,14.89633
1.14,13.986055,15.423062,16.012075
1.144,13.296707,13.986055,15.423062
1.148,14.194707,13.296707,13.986055
1.152,16.709717,14.194707,13.296707
1.156,20.171663,16.709717,14.194707
1.16,23.197269,20.171663,16.709717
1.164,24.737061,23.197269,20.171663
1.168,24.855074,24.737061,23.197269
1.172,24.184448,24.855074,24.737061
1.176,22.856421,24.184448,24.855074
1.18,20.872911,22.856421,24.184448
1.184,18.592163,20.872911,22.856421
1.188,15.771976,18.592163,20.872911
1.192,11.856249,15.771976,18.592163
1.196,7.129614,11.856249,15.771976
1.2,2.72482,7.129614,11.856249
1.204,-0.355391,2.72482,7.129614
1.208,-1.819622,-0.355391,2.72482
1.212,-1.769589,-1.819622,-0.355391
1.216,-0.802207,-1.769589,-1.819622
1.22,0.439569,-0.802207,-1.769589
1.224,1.910504,0.439569,-0.802207
1.228,3.731157,1.910504,0.439569
1.232,5.779831,3.731157,1.910504
1.236,7.635166,5.779831,3.731157
1.24,8.791984,7.635166,5.779831
1.244,9.035979,8.791984,7.635166
1.248,8.373543,9.035979,8.791984
1.252,7.278811,8.373543,9.035979
1.256,6.654566,7.278811,8.373543
1.26,7.19646,6.654566,7.278811
1.264,8.585433,7.19646,6.654566
1.268,9.480721,8.585433,7.19646
1.272,9.039919,9.480721,8.585433
1.276,7.777826,9.039919,9.480721
1.28,6.820573,7.777826,9.039919
1.284,6.72014,6.820573,7.777826
1.288,6.990551,6.72014,6.820573
1.292,7.214103,6.990551,6.72014
1.296,7.285999,7.214103,6.990551
1.3,6.886187,7.285999,7.214103
1.304,5.777089,6.886187,7.285999
1.308,4.253714,5.777089,6.886187
1.312,3.023105,4.253714,5.777089
1.316,2.294966,3.023105,4.253714
1.32,1.849625,2.294966,3.023105
1.324,1.839218,1.849625,2.294966
1.328,2.714004,1.839218,1.849625
1.332,4.938374,2.714004,1.839218
1.336,8.338998,4.938374,2.714004
1.34,11.897548,8.338998,4.938374
1.344,14.261248,11.897548,8.338998
1.348,14.447793,14.261248,11.897548
1.352,12.497944,14.447793,14.261248
1.356,9.31671,12.497944,14.447793
1.36,6.38273,9.31671,12.497944
1.364,4.964859,6.38273,9.31671
1.368,4.838404,4.964859,6.38273
1.372,4.588136,4.838404,4.964859
1.376,2.853348,4.588136,4.838404
1.38,-0.463139,2.853348,4.588136
1.384,-4.078995,-0.463139,2.853348
1.388,-6.603079,-4.078995,-0.463139
1.392,-7.417315,-6.603079,-4.078995
1.396,-6.567163,-7.417315,-6.603079
1.4,-4.496191,-6.567163,-7.417315
1.404,-2.058043,-4.496191,-6.567163
1.408,0.040374,-2.058043,-4.496191
1.412,2.189896,0.040374,-2.058043
1.416,4.563794,2.189896,0.040374
1.42,6.102745,4.563794,2.189896
1.424,6.272052,6.102745,4.563794
1.428,6.10818,6.272052,6.102745
1.432,6.686363,6.10818,6.272052
1.436,7.552638,6.686363,6.10818
1.44,7.888655,7.552638,6.686363
1.444,7.879735,7.888655,7.552638
1.448,7.916443,7.879735,7.888655
1.452,8.097499,7.916443,7.879735
1.456,8.263015,8.097499,7.916443
1.46,8.192739,8.263015,8.097499
1.464,7.750869,8.192739,8.263015
1.468,6.467362,7.750869,8.192739
1.472,3.867558,6.467362,7.750869
1.476,0.406014,3.867558,6.467362
1.48,-2.184574,0.406014,3.867558
1.484,-2.350355,-2.184574,0.406014
1.488,-0.205031,-2.350355,-2.184574
1.492,3.455835,-0.205031,-2.350355
1.496,8.023649,3.455835,-0.205031
1.5,12.693447,8.023649,3.455835
1.504,16.555046,12.693447,8.023649
1.508,18.986519,16.555046,12.693447
1.512,19.76898,18.986519,16.555046
1.516,18.586761,19.76898,18.986519
1.52,15.576179,18.586761,19.76898
1.524,12.144947,15.576179,18.586761
1.528,9.877423,12.144947,15.576179
1.532,8.835308,9.877423,12.144947
1.536,7.360625,8.835308,9.877423
1.54,4.202134,7.360625,8.835308
1.544,0.029476,4.202134,7.360625
1.548,-3.718567,0.029476,4.202134
1.552,-5.968552,-3.718567,0.029476
1.556,-6.026387,-5.968552,-3.718567
1.56,-3.584673,-6.026387,-5.968552
1.564,0.363672,-3.584673,-6.026387
1.568,3.485034,0.363672,-3.584673
1.572,4.333485,3.485034,0.363672
1.576,3.498666,4.333485,3.485034
1.58,2.218579,3.498666,4.333485
1.584,0.818197,2.218579,3.498666
1.588,-0.985622,0.818197,2.218579
1.592,-2.922168,-0.985622,0.818197
1.596,-4.551252,-2.922168,-0.985622
1.6,-6.157328,-4.551252,-2.922168
1.604,-8.472835,-6.157328,-4.551252
1.608,-11.818104,-8.472835,-6.157328
1.612,-15.482231,-11.818104,-8.472835
1.616,-18.396671,-15.482231,-11.818104
1.62,-20.116255,-18.396671,-15.482231
1.624,-20.952658,-20.116255,-18.396671
1.628,-21.466549,-20.952658,-20.116255
1.632,-21.794083,-21.466549,-20.952658
1.636,-21.620064,-21.794083,-21.466549
1.64,-20.366541,-21.620064,-21.794083
1.644,-17.908682,-20.366541,-21.620064
1.648,-15.530546,-17.908682,-20.366541
1.652,-14.853025,-15.530546,-17.908682
1.656,-16.195215,-14.853025,-15.530546
1.66,-18.616331,-16.195215,-14.853025
1.664,-20.969791,-18.616331,-16.195215
1.668,-22.164383,-20.969791,-18.616331
1.672,-21.270491,-22.164383,-20.969791
1.676,-18.875439,-21.270491,-22.164383
1.68,-17.061703,-18.875439,-21.270491
1.684,-17.262875,-17.061703,-18.875439
1.688,-19.113401,-17.262875,-17.061703
1.692,-21.108877,-19.113401,-17.262875
1.696,-22.059032,-21.108877,-19.113401
1.7,-21.804281,-22.059032,-21.108877
1.704,-20.950069,-21.804281,-22.059032
1.708,-20.247942,-20.950069,-21.804281
1.712,-19.960932,-20.247942,-20.950069
1.716,-19.914532,-19.960932,-20.247942
1.72,-19.465454,-19.914532,-19.960932
1.724,-17.646038,-19.465454,-19.914532
1.728,-14.220675,-17.646038,-19.465454
1.732,-10.142077,-14.220675,-17.646038
1.736,-7.061472,-10.142077,-14.220675
1.74,-5.904497,-7.061472,-10.142077
1.744,-6.103695,-5.904497,-7.061472
1.748,-6.665975,-6.103695,-5.904497
1.752,-7.080149,-6.665975,-6.103695
1.756,-7.442879,-7.080149,-6.665975
1.76,-8.143511,-7.442879,-7.080149
1.764,-9.516936,-8.143511,-7.442879
1.768,-11.759801,-9.516936,-8.143511
1.772,-14.849386,-11.759801,-9.516936
1.776,-18.561314,-14.849386,-11.759801
1.78,-21.928316,-18.561314,-14.849386
1.784,-23.314264,-21.928316,-18.561314
1.788,-21.901821,-23.314264,-21.928316
1.792,-18.421711,-21.901821,-23.314264
1.796,-14.519838,-18.421711,-21.901821
1.8,-11.563844,-14.519838,-18.421711
1.804,-9.96069,-11.563844,-14.519838
1.808,-9.326111,-9.96069,-11.563844
1.812,-8.388137,-9.326111,-9.96069
1.816,-5.635633,-8.388137,-9.326111
1.82,-0.863772,-5.635633,-8.388137
1.824,4.374005,-0.863772,-5.635633
1.828,8.073007,4.374005,-0.863772
1.832,9.349494,8.073007,4.374005
1.836,8.185729,9.349494,8.073007
1.84,5.106507,8.185729,9.349494
1.844,1.505759,5.106507,8.185729
1.848,-1.273997,1.505759,5.106507
1.852,-2.825019,-1.273997,1.505759
1.856,-3.605629,-2.825019,-1.273997
1.86,-4.350152,-3.605629,-2.825019
1.864,-5.551449,-4.350152,-3.605629
1.868,-7.179583,-5.551449,-4.350152
1.872,-8.51538,-7.179583,-5.551449
1.876,-9.051338,-8.51538,-7.179583
1.88,-8.46685,-9.051338,-8.51538
1.884,-5.880819,-8.46685,-9.051338
1.888,-0.921192,-5.880819,-8.46685
1.892,5.387185,-0.921192,-5.880819
1.896,11.693498,5.387185,-0.921192
1.9,17.393023,11.693498,5.387185
1.904,21.900846,17.393023,11.693498
1.908,24.171848,21.900846,17.393023
1.912,24.037388,24.171848,21.900846
1.916,22.18824,24.037388,24.171848
1.92,19.025661,22.18824,24.037388
1.924,14.422089,19.025661,22.18824
1.928,8.21394,14.422089,19.025661
1.932,1.011775,8.21394,14.422089
1.936,-6.123178,1.011775,8.21394
1.94,-12.494941,-6.123178,1.011775
1.944,-17.479809,-12.494941,-6.123178
1.948,-20.215208,-17.479809,-12.494941
1.952,-20.417746,-20.215208,-17.479809
1.956,-19.119343,-20.417746,-20.215208
1.96,-17.191086,-19.119343,-20.417746
1.964,-14.269118,-17.191086,-19.119343
1.968,-10.377639,-14.269118,-17.191086
1.972,-6.656837,-10.377639,-14.269118
1.976,-4.305184,-6.656837,-10.377639
1.98,-3.663629,-4.305184,-6.656837
1.984,-4.436598,-3.663629,-4.305184
1.988,-6.072415,-4.436598,-3.663629
1.992,-7.458761,-6.072415,-4.436598
1.996,-7.379621,-7.458761,-6.072415
2,-5.598839,-7.379621,-7.458761
2.004,-3.484899,-5.598839,-7.379621
2.008,-3.11668,-3.484899,-5.598839
2.012,-4.918788,-3.11668,-3.484899
2.016,-7.274052,-4.918788,-3.11668
2.02,-8.321969,-7.274052,-4.918788
2.024,-7.325422,-8.321969,-7.274052
2.028,-4.673107,-7.325422,-8.321969
2.032,-1.224733,-4.673107,-7.325422
2.036,1.777747,-1.224733,-4.673107
2.04,3.224876,1.777747,-1.224733
2.044,3.053704,3.224876,1.777747
2.048,2.290667,3.053704,3.224876
2.052,2.15827,2.290667,3.053704
2.056,2.942101,2.15827,2.290667
2.06,4.08335,2.942101,2.15827
2.064,5.082053,4.08335,2.942101
2.068,5.558215,5.082053,4.08335
2.072,5.209988,5.558215,5.082053
2.076,3.81967,5.209988,5.558215
2.08,1.666836,3.81967,5.209988
2.084,-0.334802,1.666836,3.81967
2.088,-1.488504,-0.334802,1.666836
2.092,-1.668087,-1.488504,-0.334802
2.096,-0.973996,-1.668087,-1.488504
2.1,0.61659,-0.973996,-1.668087
2.104,2.835479,0.61659,-0.973996
2.108,4.624066,2.835479,0.61659
2.112,4.887638,4.624066,2.835479
2.116,3.127213,4.887638,4.624066
2.12,-0.102671,3.127213,4.887638
2.124,-3.23258,-0.102671,3.127213
2.128,-4.84066,-3.23258,-0.102671
2.132,-4.704298,-4.84066,-3.23258
2.136,-3.904428,-4.704298,-4.84066
2.14,-3.687894,-3.904428,-4.704298
2.144,-4.459838,-3.687894,-3.904428
2.148,-5.808352,-4.459838,-3.687894
2.152,-6.806855,-5.808352,-4.459838
2.156,-6.545614,-6.806855,-5.808352
2.16,-4.784761,-6.545614,-6.806855
2.164,-2.467822,-4.784761,-6.545614
2.168,-1.247946,-2.467822,-4.784761
2.172,-1.84758,-1.247946,-2.467822
2.176,-3.649373,-1.84758,-1.247946
2.18,-5.473394,-3.649373,-1.84758
2.184,-6.152161,-5.473394,-3.649373
2.188,-5.274559,-6.152161,-5.473394
2.192,-3.459244,-5.274559,-6.152161
2.196,-1.888652,-3.459244,-5.274559
2.2,-1.307561,-1.888652,-3.459244
2.204,-1.650415,-1.307561,-1.888652
2.208,-2.453144,-1.650415,-1.307561
2.212,-2.841407,-2.453144,-1.650415
2.216,-2.231899,-2.841407,-2.453144
2.22,-1.063163,-2.231899,-2.841407
2.224,-0.145922,-1.063163,-2.231899
2.228,0.431188,-0.145922,-1.063163
2.232,1.319172,0.431188,-0.145922
2.236,2.332825,1.319172,0.431188
2.24,2.188151,2.332825,1.319172
2.244,0.283284,2.188151,2.332825
2.248,-2.438046,0.283284,2.188151
2.252,-4.54454,-2.438046,0.283284
2.256,-5.659844,-4.54454,-2.438046
2.26,-6.257133,-5.659844,-4.54454
2.264,-6.725074,-6.257133,-5.659844
2.268,-7.393654,-6.725074,-6.257133
2.272,-8.242344,-7.393654,-6.725074
2.276,-8.490646,-8.242344,-7.393654
2.28,-7.14108,-8.490646,-8.242344
2.284,-4.087455,-7.14108,-8.490646
2.288,-0.369806,-4.087455,-7.14108
2.292,2.882381,-0.369806,-4.087455
2.296,4.933393,2.882381,-0.369806
2.3,5.874441,4.933393,2.882381
2.304,6.561062,5.874441,4.933393
2.308,7.035343,6.561062,5.874441
2.312,6.280796,7.035343,6.561062
2.316,4.119595,6.280796,7.035343
2.32,1.913876,4.119595,6.280796
2.324,0.394828,1.913876,4.119595
2.328,-1.61675,0.394828,1.913876
2.332,-4.990119,-1.61675,0.394828
2.336,-9.07621,-4.990119,-1.61675
2.34,-12.826074,-9.07621,-4.990119
2.344,-15.631417,-12.826074,-9.07621
2.348,-17.14809,-15.631417,-12.826074
2.352,-17.309679,-17.14809,-15.631417
2.356,-17.047325,-17.309679,-17.14809
2.36,-17.682838,-17.047325,-17.309679
2.364,-19.51219,-17.682838,-17.047325
2.368,-21.657766,-19.51219,-17.682838
2.372,-22.787743,-21.657766,-19.51219
2.376,-22.259615,-22.787743,-21.657766
2.38,-20.28306,-22.259615,-22.787743
2.384,-17.309725,-20.28306,-22.259615
2.388,-13.862227,-17.309725,-20.28306
2.392,-10.628591,-13.862227,-17.309725
2.396,-8.351599,-10.628591,-13.862227
2.4,-6.946645,-8.351599,-10.628591
2.404,-5.50849,-6.946645,-8.351599
2.408,-3.649244,-5.50849,-6.946645
2.412,-1.79266,-3.649244,-5.50849
2.416,-0.288077,-1.79266,-3.649244
2.42,1.02895,-0.288077,-1.79266
2.424,1.996121,1.02895,-0.288077
2.428,1.902979,1.996121,1.02895
2.432,0.803382,1.902979,1.996121
2.436,-0.445917,0.803382,1.902979
2.44,-1.603944,-0.445917,0.803382
2.444,-3.323806,-1.603944,-0.445917
2.448,-5.821401,-3.323806,-1.603944
2.452,-8.233357,-5.821401,-3.323806
2.456,-10.015917,-8.233357,-5.821401
2.46,-11.466295,-10.015917,-8.233357
2.464,-12.647483,-11.466295,-10.015917
2.468,-13.235231,-12.647483,-11.466295
2.472,-13.102875,-13.235231,-12.647483
2.476,-12.458065,-13.102875,-13.235231
2.48,-11.210108,-12.458065,-13.102875
2.484,-8.878399,-11.210108,-12.458065
2.488,-5.407366,-8.878399,-11.210108
2.492,-1.370604,-5.407366,-8.878399
2.496,2.339754,-1.370604,-5.407366
2.5,5.173571,2.339754,-1.370604
2.504,7.110561,5.173571,2.339754
2.508,8.126963,7.110561,5.173571
2.512,8.120601,8.126963,7.110561
2.516,6.866103,8.120601,8.126963
2.52,4.3739,6.866103,8.120601
2.524,1.261279,4.3739,6.866103
2.528,-1.586314,1.261279,4.3739
2.532,-3.339082,-1.586314,1.261279
2.536,-3.663677,-3.339082,-1.586314
2.54,-3.013743,-3.663677,-3.339082
2.544,-2.277357,-3.013743,-3.663677
2.548,-2.041094,-2.277357,-3.013743
2.552,-2.223802,-2.041094,-2.277357
2.556,-2.777023,-2.223802,-2.041094
2.56,-3.797152,-2.777023,-2.223802
2.564,-4.966795,-3.797152,-2.777023
2.568,-5.5993,-4.966795,-3.797152
2.572,-5.155528,-5.5993,-4.966795
2.576,-4.047483,-5.155528,-5.5993
2.58,-3.297032,-4.047483,-5.155528
2.584,-2.964442,-3.297032,-4.047483
2.588,-1.746675,-2.964442,-3.297032
2.592,1.612593,-1.746675,-2.964442
2.596,6.692,1.612593,-1.746675
2.6,12.078848,6.692,1.612593
2.604,16.839321,12.078848,6.692
2.608,20.28409,16.839321,12.078848
2.612,21.577963,20.28409,16.839321
2.616,20.289825,21.577963,20.28409
2.62,16.978474,20.289825,21.577963
2.624,12.308253,16.978474,20.289825
2.628,6.385804,12.308253,16.978474
2.632,0.099552,6.385804,12.308253
2.636,-4.554595,0.099552,6.385804
2.64,-5.991884,-4.554595,0.099552
2.644,-4.525328,-5.991884,-4.554595
2.648,-2.426107,-4.525328,-5.991884
2.652,-2.04187,-2.426107,-4.525328
2.656,-3.965121,-2.04187,-2.426107
2.66,-6.627769,-3.965121,-2.04187
2.664,-7.879715,-6.627769,-3.965121
2.668,-7.139552,-7.879715,-6.627769
2.672,-5.7325,-7.139552,-7.879715
2.676,-5.3873,-5.7325,-7.139552
2.68,-6.044477,-5.3873,-5.7325
2.684,-5.835403,-6.044477,-5.3873
2.688,-3.590911,-5.835403,-6.044477
2.692,0.1424,-3.590911,-5.835403
2.696,4.079596,0.1424,-3.590911
2.7,7.149219,4.079596,0.1424
2.704,8.492536,7.149219,4.079596
2.708,7.988602,8.492536,7.149219
2.712,7.304355,7.988602,8.492536
2.716,8.417628,7.304355,7.988602
2.72,11.171997,8.417628,7.304355
2.724,13.378656,11.171997,8.417628
2.728,13.282611,13.378656,11.171997
2.732,11.457185,13.282611,13.378656
2.736,9.67354,11.457185,13.282611
2.74,8.801849,9.67354,11.457185
2.744,8.308834,8.801849,9.67354
2.748,7.66399,8.308834,8.801849
2.752,7.712514,7.66399,8.308834
2.756,9.154705,7.712514,7.66399
2.76,11.034096,9.154705,7.712514
2.764,11.993551,11.034096,9.154705
2.768,11.90007,11.993551,11.034096
2.772,11.394459,11.90007,11.993551
2.776,10.761971,11.394459,11.90007
2.78,10.487255,10.761971,11.394459
2.784,11.512072,10.487255,10.761971
2.788,14.037843,11.512072,10.487255
2.792,17.156412,14.037843,11.512072
2.796,19.371807,17.156412,14.037843
2.8,19.721109,19.371807,17.156412
2.804,18.63558,19.721109,19.371807
2.808,17.207136,18.63558,19.721109
2.812,15.885166,17.207136,18.63558
2.816,14.490836,15.885166,17.207136
2.82,13.540309,14.490836,15.885166
2.824,14.037904,13.540309,14.490836
2.828,15.930897,14.037904,13.540309
2.832,18.342165,15.930897,14.037904
2.836,20.655216,18.342165,15.930897
2.84,22.459146,20.655216,18.342165
2.844,23.348816,22.459146,20.655216
2.848,23.56142,23.348816,22.459146
2.852,24.120081,23.56142,23.348816
2.856,25.152561,24.120081,23.56142
2.86,25.449224,25.152561,24.120081
2.864,24.378231,25.449224,25.152561
2.868,22.8634,24.378231,25.449224
2.872,21.848703,22.8634,24.378231
2.876,20.761742,21.848703,22.8634
2.88,19.04426,20.761742,21.848703
2.884,17.57288,19.04426,20.761742
2.888,16.607,17.57288,19.04426
2.892,14.558586,16.607,17.57288
2.896,10.478516,14.558586,16.607
2.9,6.112818,10.478516,14.558586
2.904,3.778858,6.112818,10.478516
2.908,3.575757,3.778858,6.112818
2.912,3.772074,3.575757,3.778858
2.916,2.746998,3.772074,3.575757
2.92,0.581097,2.746998,3.772074
2.924,-1.359313,0.581097,2.746998
2.928,-2.220557,-1.359313,0.581097
2.932,-2.013473,-2.220557,-1.359313
2.936,-1.069158,-2.013473,-2.220557
2.94,-0.078127,-1.069158,-2.013473
2.944,0.001014,-0.078127,-1.069158
2.948,-1.116417,0.001014,-0.078127
2.952,-2.40671,-1.116417,0.001014
2.956,-2.855574,-2.40671,-1.116417
2.96,-2.380435,-2.855574,-2.40671
2.964,-1.675004,-2.380435,-2.855574
2.968,-1.663099,-1.675004,-2.380435
2.972,-2.022066,-1.663099,-1.675004
2.976,-1.052888,-2.022066,-1.663099
2.98,1.975216,-1.052888,-2.022066
2.984,4.977623,1.975216,-1.052888
2.988,5.079319,4.977623,1.975216
2.992,2.442705,5.079319,4.977623
2.996,-0.061184,2.442705,5.079319
3,0.135258,-0.061184,2.442705
3.004,3.430408,0.135258,-0.061184
3.008,8.140818,3.430408,0.135258
3.012,12.027495,8.140818,3.430408
3.016,13.326142,12.027495,8.140818
3.02,11.18914,13.326142,12.027495
3.024,6.208826,11.18914,13.326142
3.028,0.763229,6.208826,11.18914
3.032,-2.524317,0.763229,6.208826
3.036,-3.724682,-2.524317,0.763229
3.04,-4.89888,-3.724682,-2.524317
3.044,-6.424178,-4.89888,-3.724682
3.048,-6.747583,-6.424178,-4.89888
3.052,-5.276216,-6.747583,-6.424178
3.056,-3.011392,-5.276216,-6.747583
3.06,-0.167926,-3.011392,-5.276216
3.064,4.265012,-0.167926,-3.011392
3.068,10.50433,4.265012,-0.167926
3.072,17.465141,10.50433,4.265012
3.076,23.712782,17.465141,10.50433
3.08,28.133108,23.712782,17.465141
3.084,30.123699,28.133108,23.712782
3.088,29.624109,30.123699,28.133108
3.092,27.530077,29.624109,30.123699
3.096,25.261551,27.530077,29.624109
3.1,23.721952,25.261551,27.530077
3.104,22.495842,23.721952,25.261551
3.108,20.285572,22.495842,23.721952
3.112,16.658367,20.285572,22.495842
3.116,12.417385,16.658367,20.285572
3.12,8.472135,12.417385,16.658367
3.124,5.27854,8.472135,12.417385
3.128,3.290305,5.27854,8.472135
3.132,2.935182,3.290305,5.27854
3.136,3.357301,2.935182,3.290305
3.14,3.226628,3.357301,2.935182
3.144,2.705139,3.226628,3.357301
3.148,2.965906,2.705139,3.226628
3.152,4.365933,2.965906,2.705139
3.156,5.922403,4.365933,2.965906
3.16,6.707081,5.922403,4.365933
3.164,7.123899,6.707081,5.922403
3.168,7.998825,7.123899,6.707081
3.172,9.294524,7.998825,7.123899
3.176,10.374357,9.294524,7.998825
3.18,11.400928,10.374357,9.294524
3.184,12.654374,11.400928,10.374357
3.188,13.139925,12.654374,11.400928
3.192,11.993084,13.139925,12.654374
3.196,9.917966,11.993084,13.139925
3.2,8.230352,9.917966,11.993084
3.204,7.56335,8.230352,9.917966
3.208,7.649401,7.56335,8.230352
3.212,7.983917,7.649401,7.56335
3.216,8.132586,7.983917,7.649401
3.22,7.988423,8.132586,7.983917
3.224,7.534597,7.988423,8.132586
3.228,6.582587,7.534597,7.988423
3.232,5.339283,6.582587,7.534597
3.236,4.411877,5.339283,6.582587
3.24,4.270854,4.411877,5.339283
3.244,4.830199,4.270854,4.411877
3.248,5.42792,4.830199,4.270854
3.252,5.718552,5.42792,4.830199
3.256,6.116741,5.718552,5.42792
3.26,7.172513,6.116741,5.718552
3.264,8.533509,7.172513,6.116741
3.268,8.94666,8.533509,7.172513
3.272,7.815894,8.94666,8.533509
3.276,5.579149,7.815894,8.94666
3.28,2.600231,5.579149,7.815894
3.284,-1.300796,2.600231,5.579149
3.288,-5.853683,-1.300796,2.600231
3.292,-9.823064,-5.853683,-1.300796
3.296,-12.529543,-9.823064,-5.853683
3.3,-14.300871,-12.529543,-9.823064
3.304,-15.085124,-14.300871,-12.529543
3.308,-14.445085,-15.085124,-14.300871
3.312,-12.680564,-14.445085,-15.085124
3.316,-10.93597,-12.680564,-14.445085
3.32,-9.767857,-10.93597,-12.680564
3.324,-8.734122,-9.767857,-10.93597
3.328,-7.441607,-8.734122,-9.767857
3.332,-5.862196,-7.441607,-8.734122
3.336,-4.480601,-5.862196,-7.441607
3.34,-4.23095,-4.480601,-5.862196
3.344,-5.602999,-4.23095,-4.480601
3.348,-8.020191,-5.602999,-4.23095
3.352,-10.211507,-8.020191,-5.602999
3.356,-11.374586,-10.211507,-8.020191
3.36,-11.265111,-11.374586,-10.211507
3.364,-10.044028,-11.265111,-11.374586
3.368,-8.640352,-10.044028,-11.265111
3.372,-7.894309,-8.640352,-10.044028
3.376,-7.875456,-7.894309,-8.640352
3.38,-8.321979,-7.875456,-7.894309
3.384,-9.07831,-8.321979,-7.875456
3.388,-9.811244,-9.07831,-8.321979
3.392,-9.959023,-9.811244,-9.07831
3.396,-9.990321,-9.959023,-9.811244
3.4,-11.138959,-9.990321,-9.959023
3.404,-13.833031,-11.138959,-9.990321
3.408,-17.414347,-13.833031,-11.138959
3.412,-20.863749,-17.414347,-13.833031
3.416,-23.534302,-20.863749,-17.414347
3.42,-25.030874,-23.534302,-20.863749
3.424,-24.936666,-25.030874,-23.534302
3.428,-23.182577,-24.936666,-25.030874
3.432,-20.480101,-23.182577,-24.936666
3.436,-18.279501,-20.480101,-23.182577
3.44,-17.128874,-18.279501,-20.480101
3.444,-15.988328,-17.128874,-18.279501
3.448,-14.249725,-15.988328,-17.128874
3.452,-12.63629,-14.249725,-15.988328
3.456,-11.514629,-12.63629,-14.249725
3.46,-10.070971,-11.514629,-12.63629
3.464,-8.099638,-10.070971,-11.514629
3.468,-6.745956,-8.099638,-10.070971
3.472,-6.613169,-6.745956,-8.099638
3.476,-7.312459,-6.613169,-6.745956
3.48,-8.355035,-7.312459,-6.613169
3.484,-9.273347,-8.355035,-7.312459
3.488,-9.761468,-9.273347,-8.355035
3.492,-9.844643,-9.761468,-9.273347
3.496,-9.696603,-9.844643,-9.761468
3.5,-9.256199,-9.696603,-9.844643
3.504,-8.809984,-9.256199,-9.696603
3.508,-9.167946,-8.809984,-9.256199
3.512,-9.807312,-9.167946,-8.809984
3.516,-8.757007,-9.807312,-9.167946
3.52,-5.298955,-8.757007,-9.807312
3.524,-1.052305,-5.298955,-8.757007
3.528,2.139513,-1.052305,-5.298955
3.532,4.008272,2.139513,-1.052305
3.536,4.694067,4.008272,2.139513
3.54,4.19859,4.694067,4.008272
3.544,3.097467,4.19859,4.694067
3.548,2.32627,3.097467,4.19859
3.552,2.478264,2.32627,3.097467
3.556,3.202254,2.478264,2.32627
3.56,3.781288,3.202254,2.478264
3.564,4.176724,3.781288,3.202254
3.568,4.67272,4.176724,3.781288
3.572,5.044447,4.67272,4.176724
3.576,4.55984,5.044447,4.67272
3.58,3.406609,4.55984,5.044447
3.584,3.009255,3.406609,4.55984
3.588,4.153555,3.009255,3.406609
3.592,5.91496,4.153555,3.009255
3.596,6.901735,5.91496,4.153555
3.6,7.074428,6.901735,5.91496
3.604,7.211677,7.074428,6.901735
3.608,7.272429,7.211677,7.074428
3.612,7.167122,7.272429,7.211677
3.616,7.531531,7.167122,7.272429
3.62,8.507765,7.531531,7.167122
3.624,8.755967,8.507765,7.531531
3.628,6.964841,8.755967,8.507765
3.632,3.813681,6.964841,8.755967
3.636,0.815783,3.813681,6.964841
3.64,-1.591001,0.815783,3.813681
3.644,-3.886092,-1.591001,0.815783
3.648,-6.375936,-3.886092,-1.591001
3.652,-8.729977,-6.375936,-3.886092
3.656,-10.625826,-8.729977,-6.375936
3.66,-11.957759,-10.625826,-8.729977
3.664,-12.364756,-11.957759,-10.625826
3.668,-11.251727,-12.364756,-11.957759
3.672,-8.968595,-11.251727,-12.364756
3.676,-7.685305,-8.968595,-11.251727
3.68,-9.145327,-7.685305,-8.968595
3.684,-11.963346,-9.145327,-7.685305
3.688,-13.051879,-11.963346,-9.145327
3.692,-11.4593,-13.051879,-11.963346
3.696,-9.250343,-11.4593,-13.051879
3.7,-7.965015,-9.250343,-11.4593
3.704,-6.750551,-7.965015,-9.250343
3.708,-4.890545,-6.750551,-7.965015
3.712,-3.134285,-4.890545,-6.750551
3.716,-1.923379,-3.134285,-4.890545
3.72,-0.69648,-1.923379,-3.134285
3.724,0.474886,-0.69648,-1.923379
3.728,0.596385,0.474886,-0.69648
3.732,-0.429162,0.596385,0.474886
3.736,-1.38294,-0.429162,0.596385
3.74,-0.966542,-1.38294,-0.429162
3.744,0.740908,-0.966542,-1.38294
3.748,2.005609,0.740908,-0.966542
3.752,1.483821,2.005609,0.740908
3.756,-0.325835,1.483821,2.005609
3.76,-2.421606,-0.325835,1.483821
3.764,-5.051186,-2.421606,-0.325835
3.768,-8.824377,-5.051186,-2.421606
3.772,-12.575229,-8.824377,-5.051186
3.776,-14.447059,-12.575229,-8.824377
3.78,-14.329325,-14.447059,-12.575229
3.784,-13.661268,-14.329325,-14.447059
3.788,-13.380013,-13.661268,-14.329325
3.792,-13.147211,-13.380013,-13.661268
3.796,-12.692197,-13.147211,-13.380013
3.8,-12.252261,-12.692197,-13.147211
3.804,-11.643811,-12.252261,-12.692197
3.808,-10.360651,-11.643811,-12.252261
3.812,-8.644645,-10.360651,-11.643811
3.816,-7.922343,-8.644645,-10.360651
3.82,-9.105005,-7.922343,-8.644645
3.824,-11.253802,-9.105005,-7.922343
3.828,-12.765471,-11.253802,-9.105005
3.832,-13.068253,-12.765471,-11.253802
3.836,-12.836636,-13.068253,-12.765471
3.84,-12.788329,-12.836636,-13.068253
3.844,-13.214579,-12.788329,-12.836636
3.848,-14.367725,-13.214579,-12.788329
3.852,-15.875867,-14.367725,-13.214579
3.856,-16.763868,-15.875867,-14.367725
3.86,-16.435303,-16.763868,-15.875867
3.864,-15.080978,-16.435303,-16.763868
3.868,-13.050583,-15.080978,-16.435303
3.872,-10.4444,-13.050583,-15.080978
3.876,-7.591456,-10.4444,-13.050583
3.88,-4.956143,-7.591456,-10.4444
3.884,-2.902488,-4.956143,-7.591456
3.888,-1.621551,-2.902488,-4.956143
3.892,-0.566108,-1.621551,-2.902488
3.896,0.863971,-0.566108,-1.621551
3.9,2.279395,0.863971,-0.566108
3.904,3.038598,2.279395,0.863971
3.908,3.167833,3.038598,2.279395
3.912,2.572284,3.167833,3.038598
3.916,0.263446,2.572284,3.167833
3.92,-3.816649,0.263446,2.572284
3.924,-7.601408,-3.816649,0.263446
3.928,-9.152681,-7.601408,-3.816649
3.932,-8.629888,-9.152681,-7.601408
3.936,-7.59942,-8.629888,-9.152681
3.94,-7.08211,-7.59942,-8.629888
3.944,-7.097391,-7.08211,-7.59942
3.948,-7.491896,-7.097391,-7.08211
3.952,-7.751643,-7.491896,-7.097391
3.956,-6.927067,-7.751643,-7.491896
3.96,-4.253256,-6.927067,-7.751643
3.964,-0.123572,-4.253256,-6.927067
3.968,3.776977,-0.123572,-4.253256
3.972,6.048839,3.776977,-0.123572
3.976,6.695611,6.048839,3.776977
3.98,6.636538,6.695611,6.048839
3.984,6.102663,6.636538,6.695611
3.988,4.096761,6.102663,6.636538
3.992,0.312544,4.096761,6.102663
3.996,-3.984021,0.312544,4.096761
4,-7.364424,-3.984021,0.312544
4.004,-9.799454,-7.364424,-3.984021
4.008,-12.122911,-9.799454,-7.364424
4.012,-14.226291,-12.122911,-9.799454
4.016,-15.117535,-14.226291,-12.122911
4.02,-14.312756,-15.117535,-14.226291
4.024,-12.542963,-14.312756,-15.117535
4.028,-10.540677,-12.542963,-14.312756
4.032,-7.600279,-10.540677,-12.542963
4.036,-3.313119,-7.600279,-10.540677
4.04,0.847547,-3.313119,-7.600279
4.044,3.175471,0.847547,-3.313119
4.048,3.48496,3.175471,0.847547
4.052,2.726142,3.48496,3.175471
4.056,1.914241,2.726142,3.48496
4.06,1.835667,1.914241,2.726142
4.064,2.274517,1.835667,1.914241
4.068,2.101304,2.274517,1.835667
4.072,0.828787,2.101304,2.274517
4.076,-1.395003,0.828787,2.101304
4.08,-4.153139,-1.395003,0.828787
4.084,-6.264599,-4.153139,-1.395003
4.088,-6.666409,-6.264599,-4.153139
4.092,-6.109313,-6.666409,-6.264599
4.096,-6.795803,-6.109313,-6.666409
4.1,-9.384387,-6.795803,-6.109313
4.104,-12.114667,-9.384387,-6.795803
4.108,-13.354813,-12.114667,-9.384387
4.112,-13.172393,-13.354813,-12.114667
4.116,-12.444156,-13.172393,-13.354813
4.12,-11.188012,-12.444156,-13.172393
4.124,-8.521494,-11.188012,-12.444156
4.128,-4.047883,-8.521494,-11.188012
4.132,1.420287,-4.047883,-8.521494
4.136,5.886807,1.420287,-4.047883
4.14,7.64602,5.886807,1.420287
4.144,6.958696,7.64602,5.886807
4.148,5.463546,6.958696,7.64602
4.152,4.262994,5.463546,6.958696
4.156,3.049585,4.262994,5.463546
4.16,1.411913,3.049585,4.262994
4.164,-0.362959,1.411913,3.049585
4.168,-1.939535,-0.362959,1.411913
4.172,-2.645597,-1.939535,-0.362959
4.176,-1.70799,-2.645597,-1.939535
4.18,0.229345,-1.70799,-2.645597
4.184,0.976677,0.229345,-1.70799
4.188,-0.69283,0.976677,0.229345
4.192,-3.130131,-0.69283,0.976677
4.196,-3.463508,-3.130131,-0.69283
4.2,-0.293032,-3.463508,-3.130131
4.204,5.113268,-0.293032,-3.463508
4.208,9.840283,5.113268,-0.293032
4.212,12.150892,9.840283,5.113268
4.216,12.36212,12.150892,9.840283
4.22,11.383249,12.36212,12.150892
4.224,9.829677,11.383249,12.36212
4.228,8.252562,9.829677,11.383249
4.232,7.021808,8.252562,9.829677
4.236,5.866682,7.021808,8.252562
4.24,4.710954,5.866682,7.021808
4.244,4.191086,4.710954,5.866682
4.248,4.440939,4.191086,4.710954
4.252,4.55197,4.440939,4.191086
4.256,3.314091,4.55197,4.440939
4.26,0.60546,3.314091,4.55197
4.264,-2.295306,0.60546,3.314091
4.268,-4.00471,-2.295306,0.60546
4.272,-4.043362,-4.00471,-2.295306
4.276,-3.144702,-4.043362,-4.00471
4.28,-2.13527,-3.144702,-4.043362
4.284,-0.725547,-2.13527,-3.144702
4.288,1.702427,-0.725547,-2.13527
4.292,4.51717,1.702427,-0.725547
4.296,5.929078,4.51717,1.702427
4.3,5.777792,5.929078,4.51717
4.304,6.184595,5.777792,5.929078
4.308,8.25201,6.184595,5.777792
4.312,10.715668,8.25201,6.184595
4.316,12.20212,10.715668,8.25201
4.32,12.933413,12.20212,10.715668
4.324,13.265965,12.933413,12.20212
4.328,12.544022,13.265965,12.933413
4.332,10.704338,12.544022,13.265965
4.336,8.939193,10.704338,12.544022
4.34,8.285402,8.939193,10.704338
4.344,8.473388,8.285402,8.939193
4.348,8.802923,8.473388,8.285402
4.352,9.654377,8.802923,8.473388
4.356,11.791615,9.654377,8.802923
4.36,15.051025,11.791615,9.654377
4.364,18.245672,15.051025,11.791615
4.368,19.897753,18.245672,15.051025
4.372,19.533178,19.897753,18.245672
4.376,17.967163,19.533178,19.897753
4.38,16.11507,17.967163,19.533178
4.384,14.098495,16.11507,17.967163
4.388,11.906244,14.098495,16.11507
4.392,10.444566,11.906244,14.098495
4.396,10.483805,10.444566,11.906244
4.4,11.383495,10.483805,10.444566
4.404,11.776555,11.383495,10.483805
4.408,11.182918,11.776555,11.383495
4.412,10.496402,11.182918,11.776555
4.416,10.388769,10.496402,11.182918
4.42,10.654212,10.388769,10.496402
4.424,10.993618,10.654212,10.388769
4.428,11.154187,10.993618,10.654212
4.432,10.988142,11.154187,10.993618
4.436,10.595851,10.988142,11.154187
4.44,10.277215,10.595851,10.988142
4.444,10.399686,10.277215,10.595851
4.448,11.591007,10.399686,10.277215
4.452,14.346823,11.591007,10.399686
4.456,17.606653,14.346823,11.591007
4.46,19.335859,17.606653,14.346823
4.464,18.679182,19.335859,17.606653
4.468,16.519083,18.679182,19.335859
4.472,14.089848,16.519083,18.679182
4.476,11.549698,14.089848,16.519083
4.48,8.525146,11.549698,14.089848
4.484,5.429674,8.525146,11.549698
4.488,3.156184,5.429674,8.525146
4.492,1.972009,3.156184,5.429674
4.496,1.256961,1.972009,3.156184
4.5,0.424408,1.256961,1.972009
4.504,-0.622898,0.424408,1.256961
4.508,-1.640928,-0.622898,0.424408
4.512,-1.76204,-1.640928,-0.622898
4.516,0.094204,-1.76204,-1.640928
4.52,4.629542,0.094204,-1.76204
4.524,11.448006,4.629542,0.094204
4.528,18.39739,11.448006,4.629542
4.532,22.793797,18.39739,11.448006
4.536,23.360834,22.793797,18.39739
4.54,20.894299,23.360834,22.793797
4.544,16.904322,20.894299,23.360834
4.548,12.108421,16.904322,20.894299
4.552,6.438354,12.108421,16.904322
4.556,-0.385473,6.438354,12.108421
4.56,-7.499701,-0.385473,6.438354
4.564,-12.772558,-7.499701,-0.385473
4.568,-14.804693,-12.772558,-7.499701
4.572,-14.189868,-14.804693,-12.772558
4.576,-12.422825,-14.189868,-14.804693
4.58,-9.896789,-12.422825,-14.189868
4.584,-6.342782,-9.896789,-12.422825
4.588,-2.537483,-6.342782,-9.896789
4.592,0.31386,-2.537483,-6.342782
4.596,2.277952,0.31386,-2.537483
4.6,4.713622,2.277952,0.31386
4.604,8.333841,4.713622,2.277952
4.608,12.532845,8.333841,4.713622
4.612,16.751715,12.532845,8.333841
4.616,20.736515,16.751715,12.532845
4.62,23.74786,20.736515,16.751715
4.624,24.663692,23.74786,20.736515
4.628,22.790285,24.663692,23.74786
4.632,18.372463,22.790285,24.663692
4.636,12.11853,18.372463,22.790285
4.64,4.592862,12.11853,18.372463
4.644,-3.902386,4.592862,12.11853
4.648,-12.42819,-3.902386,4.592862
4.652,-19.243221,-12.42819,-3.902386
4.656,-23.908274,-19.243221,-12.42819
4.66,-27.826227,-23.908274,-19.243221
4.664,-32.005684,-27.826227,-23.908274
4.668,-35.87009,-32.005684,-27.826227
4.672,-38.014111,-35.87009,-32.005684
4.676,-37.270393,-38.014111,-35.87009
4.68,-32.892933,-37.270393,-38.014111
4.684,-25.123446,-32.892933,-37.270393
4.688,-15.655366,-25.123446,-32.892933
4.692,-6.397263,-15.655366,-25.123446
4.696,1.533186,-6.397263,-15.655366
4.7,7.628234,1.533186,-6.397263
4.704,11.410204,7.628234,1.533186
4.708,12.557249,11.410204,7.628234
4.712,11.633235,12.557249,11.410204
4.716,9.295737,11.633235,12.557249
4.72,5.586536,9.295737,11.633235
4.724,0.734135,5.586536,9.295737
4.728,-4.091639,0.734135,5.586536
4.732,-7.483537,-4.091639,0.734135
4.736,-9.494626,-7.483537,-4.091639
4.74,-11.075611,-9.494626,-7.483537
4.744,-12.531111,-11.075611,-9.494626
4.748,-13.546134,-12.531111,-11.075611
4.752,-13.499312,-13.546134,-12.531111
4.756,-11.819734,-13.499312,-13.546134
4.76,-8.366332,-11.819734,-13.499312
4.764,-3.813324,-8.366332,-11.819734
4.768,0.811786,-3.813324,-8.366332
4.772,5.157462,0.811786,-3.813324
4.776,9.039761,5.157462,0.811786
4.78,11.835686,9.039761,5.157462
4.784,12.944449,11.835686,9.039761
4.788,12.352736,12.944449,11.835686
4.792,10.569397,12.352736,12.944449
4.796,8.057468,10.569397,12.352736
4.8,5.319973,8.057468,10.569397
4.804,2.90162,5.319973,8.057468
4.808,0.875375,2.90162,5.319973
4.812,-0.947099,0.875375,2.90162
4.816,-2.738393,-0.947099,0.875375
4.82,-4.33787,-2.738393,-0.947099
4.824,-5.561773,-4.33787,-2.738393
4.828,-6.75461,-5.561773,-4.33787
4.832,-8.325318,-6.75461,-5.561773
4.836,-10.42856,-8.325318,-6.75461
4.84,-12.919116,-10.42856,-8.325318
4.844,-15.234651,-12.919116,-10.42856
4.848,-16.680641,-15.234651,-12.919116
4.852,-16.927477,-16.680641,-15.234651
4.856,-16.350613,-16.927477,-16.680641
4.86,-15.141212,-16.350613,-16.927477
4.864,-12.875064,-15.141212,-16.350613
4.868,-9.460677,-12.875064,-15.141212
4.872,-5.630259,-9.460677,-12.875064
4.876,-2.45274,-5.630259,-9.460677
4.88,-0.338044,-2.45274,-5.630259
4.884,1.026927,-0.338044,-2.45274
4.888,1.839185,1.026927,-0.338044
4.892,2.153842,1.839185,1.026927
4.896,2.309955,2.153842,1.839185
4.9,3.079514,2.309955,2.153842
4.904,4.797553,3.079514,2.309955
4.908,6.607235,4.797553,3.079514
4.912,7.325007,6.607235,4.797553
4.916,6.438722,7.325007,6.607235
4.92,4.545522,6.438722,7.325007
4.924,2.949408,4.545522,6.438722
4.928,2.391701,2.949408,4.545522
4.932,2.433556,2.391701,2.949408
4.936,2.03473,2.433556,2.391701
4.94,0.971365,2.03473,2.433556
4.944,-0.117358,0.971365,2.03473
4.948,-0.622783,-0.117358,0.971365
4.952,-0.040171,-0.622783,-0.117358
4.956,1.580077,-0.040171,-0.622783
4.96,3.422549,1.580077,-0.040171
4.964,4.750138,3.422549,1.580077
4.968,5.835944,4.750138,3.422549
4.972,7.328638,5.835944,4.750138
4.976,8.57359,7.328638,5.835944
4.98,8.361371,8.57359,7.328638
4.984,6.764848,8.361371,8.57359
4.988,4.837525,6.764848,8.361371
4.992,3.496861,4.837525,6.764848
4.996,3.281695,3.496861,4.837525
5,4.349941,3.281695,3.496861
5.004,5.422845,4.349941,3.281695
5.008,4.36156,5.422845,4.349941
5.012,0.968791,4.36156,5.422845
5.016,-2.914935,0.968791,4.36156
5.02,-6.008298,-2.914935,0.968791
5.024,-8.513873,-6.008298,-2.914935
5.028,-10.764389,-8.513873,-6.008298
5.032,-12.459546,-10.764389,-8.513873
5.036,-13.566721,-12.459546,-10.764389
5.04,-14.383016,-13.566721,-12.459546
5.044,-14.82722,-14.383016,-13.566721
5.048,-14.43579,-14.82722,-14.383016
5.052,-12.760953,-14.43579,-14.82722
5.056,-10.05262,-12.760953,-14.43579
5.06,-6.818107,-10.05262,-12.760953
5.064,-3.032255,-6.818107,-10.05262
5.068,1.21746,-3.032255,-6.818107
5.072,5.277077,1.21746,-3.032255
5.076,8.588734,5.277077,1.21746
5.08,11.340332,8.588734,5.277077
5.084,13.736958,11.340332,8.588734
5.088,15.236431,13.736958,11.340332
5.092,15.371184,15.236431,13.736958
5.096,14.214025,15.371184,15.236431
5.1,12.316346,14.214025,15.371184
5.104,10.282252,12.316346,14.214025
5.108,8.232064,10.282252,12.316346
5.112,6.247327,8.232064,10.282252
5.116,4.472481,6.247327,8.232064
5.12,2.885968,4.472481,6.247327
5.124,1.291239,2.885968,4.472481
5.128,-0.476576,1.291239,2.885968
5.132,-2.265544,-0.476576,1.291239
5.136,-3.668058,-2.265544,-0.476576
5.14,-3.823215,-3.668058,-2.265544
5.144,-2.12484,-3.823215,-3.668058
5.148,0.534707,-2.12484,-3.823215
5.152,2.521696,0.534707,-2.12484
5.156,3.289759,2.521696,0.534707
5.16,3.927024,3.289759,2.521696
5.164,5.418128,3.927024,3.289759
5.168,7.182129,5.418128,3.927024
5.172,8.166832,7.182129,5.418128
5.176,7.815452,8.166832,7.182129
5.18,5.797568,7.815452,8.166832
5.184,2.098692,5.797568,7.815452
5.188,-1.863021,2.098692,5.797568
5.192,-3.591463,-1.863021,2.098692
5.196,-2.576806,-3.591463,-1.863021
5.2,-0.999915,-2.576806,-3.591463
5.204,-0.861002,-0.999915,-2.576806
5.208,-2.187048,-0.861002,-0.999915
5.212,-4.102472,-2.187048,-0.861002
5.216,-6.161804,-4.102472,-2.187048
5.22,-7.818062,-6.161804,-4.102472
5.224,-8.2754,-7.818062,-6.161804
5.228,-7.172384,-8.2754,-7.818062
5.232,-4.648333,-7.172384,-8.2754
5.236,-1.320283,-4.648333,-7.172384
5.24,2.054616,-1.320283,-4.648333
5.244,4.943757,2.054616,-1.320283
5.248,7.067946,4.943757,2.054616
5.252,8.524904,7.067946,4.943757
5.256,9.559958,8.524904,7.067946
5.26,10.347236,9.559958,8.524904
5.264,10.74907,10.347236,9.559958
5.268,10.50146,10.74907,10.347236
5.272,9.703572,10.50146,10.74907
5.276,8.64568,9.703572,10.50146
5.28,7.798026,8.64568,9.703572
5.284,7.514501,7.798026,8.64568
5.288,7.287271,7.514501,7.798026
5.292,6.305863,7.287271,7.514501
5.296,4.564281,6.305863,7.287271
5.3,3.048344,4.564281,6.305863
5.304,2.408731,3.048344,4.564281
5.308,2.277079,2.408731,3.048344
5.312,2.238968,2.277079,2.408731
5.316,2.166739,2.238968,2.277079
5.32,2.154775,2.166739,2.238968
5.324,2.747765,2.154775,2.166739
5.328,4.641541,2.747765,2.154775
5.332,7.786278,4.641541,2.747765
5.336,10.684337,7.786278,4.641541
5.34,11.600751,10.684337,7.786278
5.344,10.107748,11.600751,10.684337
5.348,6.82971,10.107748,11.600751
5.352,2.576817,6.82971,10.107748
5.356,-1.936842,2.576817,6.82971
5.36,-5.40504,-1.936842,2.576817
5.364,-6.375442,-5.40504,-1.936842
5.368,-4.790905,-6.375442,-5.40504
5.372,-1.783571,-4.790905,-6.375442
5.376,1.395913,-1.783571,-4.790905
5.38,3.653492,1.395913,-1.783571
5.384,3.968306,3.653492,1.395913
5.388,2.260141,3.968306,3.653492
5.392,-0.220229,2.260141,3.968306
5.396,-2.464909,-0.220229,2.260141
5.4,-4.023765,-2.464909,-0.220229
5.404,-4.269145,-4.023765,-2.464909
5.408,-3.131423,-4.269145,-4.023765
5.412,-1.781559,-3.131423,-4.269145
5.416,-1.432534,-1.781559,-3.131423
5.42,-1.685038,-1.432534,-1.781559
5.424,-1.079073,-1.685038,-1.432534
5.428,1.147491,-1.079073,-1.685038
5.432,4.390095,1.147491,-1.079073
5.436,7.323424,4.390095,1.147491
5.44,9.191479,7.323424,4.390095
5.444,9.86636,9.191479,7.323424
5.448,9.213643,9.86636,9.191479
5.452,7.721067,9.213643,9.86636
5.456,6.551451,7.721067,9.213643
5.46,6.096383,6.551451,7.721067
5.464,5.220253,6.096383,6.551451
5.468,2.841637,5.220253,6.096383
5.472,-0.214091,2.841637,5.220253
5.476,-2.075618,-0.214091,2.841637
5.48,-1.894164,-2.075618,-0.214091
5.484,-0.657131,-1.894164,-2.075618
5.488,-0.084366,-0.657131,-1.894164
5.492,-0.955237,-0.084366,-0.657131
5.496,-3.287144,-0.955237,-0.084366
5.5,-6.731717,-3.287144,-0.955237
5.504,-10.381432,-6.731717,-3.287144
5.508,-12.764235,-10.381432,-6.731717
5.512,-12.500116,-12.764235,-10.381432
5.516,-9.803256,-12.500116,-12.764235
5.52,-6.596984,-9.803256,-12.500116
5.524,-4.829506,-6.596984,-9.803256
5.528,-4.92374,-4.829506,-6.596984
5.532,-5.880375,-4.92374,-4.829506
5.536,-6.745396,-5.880375,-4.92374
5.54,-6.846114,-6.745396,-5.880375
5.544,-5.594372,-6.846114,-6.745396
5.548,-3.36641,-5.594372,-6.846114
5.552,-1.821656,-3.36641,-5.594372
5.556,-2.480084,-1.821656,-3.36641
5.56,-4.796158,-2.480084,-1.821656
5.564,-6.78609,-4.796158,-2.480084
5.568,-7.406011,-6.78609,-4.796158
5.572,-7.120122,-7.406011,-6.78609
5.576,-6.808216,-7.120122,-7.406011
5.58,-6.691733,-6.808216,-7.120122
5.584,-6.581245,-6.691733,-6.808216
5.588,-6.612103,-6.581245,-6.691733
5.592,-6.796636,-6.612103,-6.581245
5.596,-6.827947,-6.796636,-6.612103
5.6,-6.499581,-6.827947,-6.796636
5.604,-5.871037,-6.499581,-6.827947
5.608,-4.991421,-5.871037,-6.499581
5.612,-3.70357,-4.991421,-5.871037
5.616,-2.375185,-3.70357,-4.991421
5.62,-1.827785,-2.375185,-3.70357
5.624,-2.260626,-1.827785,-2.375185
5.628,-2.979191,-2.260626,-1.827785
5.632,-2.975801,-2.979191,-2.260626
5.636,-1.867701,-2.975801,-2.979191
5.64,0.117101,-1.867701,-2.975801
5.644,2.558596,0.117101,-1.867701
5.648,4.737377,2.558596,0.117101
5.652,5.730809,4.737377,2.558596
5.656,4.683449,5.730809,4.737377
5.66,1.573824,4.683449,5.730809
5.664,-2.839493,1.573824,4.683449
5.668,-7.726089,-2.839493,1.573824
5.672,-11.582071,-7.726089,-2.839493
5.676,-12.590159,-11.582071,-7.726089
5.68,-10.755405,-12.590159,-11.582071
5.684,-8.482095,-10.755405,-12.590159
5.688,-8.023575,-8.482095,-10.755405
5.692,-9.356784,-8.023575,-8.482095
5.696,-11.574499,-9.356784,-8.023575
5.7,-14.086822,-11.574499,-9.356784
5.704,-16.182547,-14.086822,-11.574499
5.708,-17.317293,-16.182547,-14.086822
5.712,-17.817799,-17.317293,-16.182547
5.716,-18.230822,-17.817799,-17.317293
5.72,-18.016872,-18.230822,-17.817799
5.724,-16.327372,-18.016872,-18.230822
5.728,-13.556646,-16.327372,-18.016872
5.732,-10.830432,-13.556646,-16.327372
5.736,-8.949306,-10.830432,-13.556646
5.74,-7.749937,-8.949306,-10.830432
5.744,-6.188333,-7.749937,-8.949306
5.748,-3.38715,-6.188333,-7.749937
5.752,0.203205,-3.38715,-6.188333
5.756,2.770682,0.203205,-3.38715
5.76,2.827596,2.770682,0.203205
5.764,0.647164,2.827596,2.770682
5.768,-2.173086,0.647164,2.827596
5.772,-4.278306,-2.173086,0.647164
5.776,-5.816772,-4.278306,-2.173086
5.78,-7.739044,-5.816772,-4.278306
5.784,-10.387829,-7.739044,-5.816772
5.788,-13.149878,-10.387829,-7.739044
5.792,-14.772301,-13.149878,-10.387829
5.796,-14.316224,-14.772301,-13.149878
5.8,-11.713371,-14.316224,-14.772301
5.804,-7.921129,-11.713371,-14.316224
5.808,-4.500056,-7.921129,-11.713371
5.812,-2.429046,-4.500056,-7.921129
5.816,-1.525307,-2.429046,-4.500056
5.82,-0.680808,-1.525307,-2.429046
5.824,0.900989,-0.680808,-1.525307
5.828,2.589002,0.900989,-0.680808
5.832,3.190757,2.589002,0.900989
5.836,2.450853,3.190757,2.589002
5.84,1.221022,2.450853,3.190757
5.844,-0.293989,1.221022,2.450853
5.848,-3.131857,-0.293989,1.221022
5.852,-7.276067,-3.131857,-0.293989
5.856,-10.731237,-7.276067,-3.131857
5.86,-11.894195,-10.731237,-7.276067
5.864,-11.396641,-11.894195,-10.731237
5.868,-10.407157,-11.396641,-11.894195
5.872,-8.906837,-10.407157,-11.396641
5.876,-7.163741,-8.906837,-10.407157
5.88,-6.203553,-7.163741,-8.906837
5.884,-5.76827,-6.203553,-7.163741
5.888,-4.357877,-5.76827,-6.203553
5.892,-1.822016,-4.357877,-5.76827
5.896,-0.060912,-1.822016,-4.357877
5.9,-0.01998,-0.060912,-1.822016
5.904,-0.488829,-0.01998,-0.060912
5.908,-0.519624,-0.488829,-0.01998
5.912,-0.326863,-0.519624,-0.488829
5.916,0.016593,-0.326863,-0.519624
5.92,0.894205,0.016593,-0.326863
5.924,2.126702,0.894205,0.016593
5.928,3.164295,2.126702,0.894205
5.932,3.899978,3.164295,2.126702
5.936,3.964981,3.899978,3.164295
5.94,2.815826,3.964981,3.899978
5.944,0.68591,2.815826,3.964981
5.948,-1.527491,0.68591,2.815826
5.952,-2.744219,-1.527491,0.68591
5.956,-2.288067,-2.744219,-1.527491
5.96,-0.336795,-2.288067,-2.744219
5.964,2.014225,-0.336795,-2.288067
5.968,3.718109,2.014225,-0.336795
5.972,4.767315,3.718109,2.014225
5.976,5.410222,4.767315,3.718109
5.98,5.339766,5.410222,4.767315
5.984,4.068246,5.339766,5.410222
5.988,1.651109,4.068246,5.339766
5.992,-1.206659,1.651109,4.068246
5.996,-4.139154,-1.206659,1.651109
6,-6.873845,-4.139154,-1.206659
6.004,-8.411191,-6.873845,-4.139154
6.008,-7.841933,-8.411191,-6.873845
6.012,-5.579257,-7.841933,-8.411191
6.016,-3.075957,-5.579257,-7.841933
6.02,-1.389958,-3.075957,-5.579257
6.024,-0.697682,-1.389958,-3.075957
6.028,-0.479677,-0.697682,-1.389958
6.032,0.193596,-0.479677,-0.697682
6.036,1.519724,0.193596,-0.479677
6.04,2.939534,1.519724,0.193596
6.044,3.92414,2.939534,1.519724
6.048,3.764525,3.92414,2.939534
6.052,1.80286,3.764525,3.92414
6.056,-1.360557,1.80286,3.764525
6.06,-3.98181,-1.360557,1.80286
6.064,-5.628247,-3.98181,-1.360557
6.068,-7.597905,-5.628247,-3.98181
6.072,-10.045534,-7.597905,-5.628247
6.076,-11.332482,-10.045534,-7.597905
6.08,-10.498552,-11.332482,-10.045534
6.084,-8.715118,-10.498552,-11.332482
6.088,-7.815112,-8.715118,-10.498552
6.092,-8.251397,-7.815112,-8.715118
6.096,-9.258811,-8.251397,-7.815112
6.1,-9.389073,-9.258811,-8.251397
6.104,-7.310577,-9.389073,-9.258811
6.108,-3.103213,-7.310577,-9.389073
6.112,1.265845,-3.103213,-7.310577
6.116,3.169277,1.265845,-3.103213
6.12,1.862782,3.169277,1.265845
6.124,-0.667631,1.862782,3.169277
6.128,-1.801641,-0.667631,1.862782
6.132,-0.964555,-1.801641,-0.667631
6.136,-0.261809,-0.964555,-1.801641
6.14,-1.873492,-0.261809,-0.964555
6.144,-6.060705,-1.873492,-0.261809
6.148,-11.504791,-6.060705,-1.873492
6.152,-16.05159,-11.504791,-6.060705
6.156,-17.96735,-16.05159,-11.504791
6.16,-17.074352,-17.96735,-16.05159
6.164,-14.586321,-17.074352,-17.96735
6.168,-11.881976,-14.586321,-17.074352
6.172,-9.443501,-11.881976,-14.586321
6.176,-7.154408,-9.443501,-11.881976
6.18,-4.704152,-7.154408,-9.443501
6.184,-2.151318,-4.704152,-7.154408
6.188,0.017832,-2.151318,-4.704152
6.192,1.73969,0.017832,-2.151318
6.196,3.245497,1.73969,0.017832
6.2,4.42221,3.245497,1.73969
6.204,4.650062,4.42221,3.245497
6.208,3.411241,4.650062,4.42221
6.212,1.283643,3.411241,4.650062
6.216,-0.627238,1.283643,3.411241
6.22,-1.711855,-0.627238,1.283643
6.224,-1.976851,-1.711855,-0.627238
6.228,-1.491603,-1.976851,-1.711855
6.232,-0.398488,-1.491603,-1.976851
6.236,0.537262,-0.398488,-1.491603
6.24,0.688132,0.537262,-0.398488
6.244,0.398031,0.688132,0.537262
6.248,0.224189,0.398031,0.688132
6.252,0.167686,0.224189,0.398031
6.256,-0.303848,0.167686,0.224189
6.26,-1.252057,-0.303848,0.167686
6.264,-1.956053,-1.252057,-0.303848
6.268,-1.577263,-1.956053,-1.252057
6.272,0.138695,-1.577263,-1.956053
6.276,2.39662,0.138695,-1.577263
6.28,4.319687,2.39662,0.138695
6.284,5.851505,4.319687,2.39662
6.288,6.959702,5.851505,4.319687
6.292,7.122888,6.959702,5.851505
6.296,6.12258,7.122888,6.959702
6.3,4.932548,6.12258,7.122888
6.304,4.270483,4.932548,6.12258
6.308,3.287851,4.270483,4.932548
6.312,1.271877,3.287851,4.270483
6.316,-1.164421,1.271877,3.287851
6.32,-3.01064,-1.164421,1.271877
6.324,-3.961084,-3.01064,-1.164421
6.328,-4.108823,-3.961084,-3.01064
6.332,-3.446553,-4.108823,-3.961084
6.336,-2.617944,-3.446553,-4.108823
6.34,-2.567676,-2.617944,-3.446553
6.344,-3.501556,-2.567676,-2.617944
6.348,-5.049167,-3.501556,-2.567676
6.352,-6.649782,-5.049167,-3.501556
6.356,-7.537574,-6.649782,-5.049167
6.36,-6.548349,-7.537574,-6.649782
6.364,-3.21628,-6.548349,-7.537574
6.368,1.351655,-3.21628,-6.548349
6.372,5.562033,1.351655,-3.21628
6.376,8.341858,5.562033,1.351655
6.38,9.378195,8.341858,5.562033
6.384,8.977739,9.378195,8.341858
6.388,7.764591,8.977739,9.378195
6.392,6.448788,7.764591,8.977739
6.396,5.291739,6.448788,7.764591
6.4,4.01436,5.291739,6.448788
6.404,1.969002,4.01436,5.291739
6.408,-1.20347,1.969002,4.01436
6.412,-4.617794,-1.20347,1.969002
6.416,-7.005662,-4.617794,-1.20347
6.42,-8.121696,-7.005662,-4.617794
6.424,-8.439416,-8.121696,-7.005662
6.428,-7.745969,-8.439416,-8.121696
6.432,-5.29338,-7.745969,-8.439416
6.436,-1.569827,-5.29338,-7.745969
6.44,2.054266,-1.569827,-5.29338
6.444,4.92627,2.054266,-1.569827
6.448,6.921062,4.92627,2.054266
6.452,7.621963,6.921062,4.92627
6.456,6.693451,7.621963,6.921062
6.46,4.940322,6.693451,7.621963
6.464,3.761564,4.940322,6.693451
6.468,3.967086,3.761564,4.940322
6.472,5.799931,3.967086,3.761564
6.476,8.827468,5.799931,3.967086
6.48,11.818323,8.827468,5.799931
6.484,13.441037,11.818323,8.827468
6.488,13.559399,13.441037,11.818323
6.492,13.369769,13.559399,13.441037
6.496,13.546569,13.369769,13.559399
6.5,13.55408,13.546569,13.369769
6.504,12.685001,13.55408,13.546569
6.508,10.857844,12.685001,13.55408
6.512,8.501586,10.857844,12.685001
6.516,6.104941,8.501586,10.857844
6.52,4.387411,6.104941,8.501586
6.524,3.61616,4.387411,6.104941
6.528,2.720988,3.61616,4.387411
6.532,0.231437,2.720988,3.61616
6.536,-4.276464,0.231437,2.720988
6.54,-9.451056,-4.276464,0.231437
6.544,-13.111733,-9.451056,-4.276464
6.548,-13.977069,-13.111733,-9.451056
6.552,-12.276022,-13.977069,-13.111733
6.556,-8.828209,-12.276022,-13.977069
6.56,-3.853187,-8.828209,-12.276022
6.564,2.333781,-3.853187,-8.828209
6.568,8.348442,2.333781,-3.853187
6.572,12.605045,8.348442,2.333781
6.576,14.51129,12.605045,8.348442
6.58,14.668757,14.51129,12.605045
6.584,14.017283,14.668757,14.51129
6.588,13.137538,14.017283,14.668757
6.592,12.03047,13.137538,14.017283
6.596,9.880372,12.03047,13.137538
6.6,6.089031,9.880372,12.03047
6.604,1.361726,6.089031,9.880372
6.608,-2.857892,1.361726,6.089031
6.612,-5.528246,-2.857892,1.361726
6.616,-6.416985,-5.528246,-2.857892
6.62,-6.032302,-6.416985,-5.528246
6.624,-5.767145,-6.032302,-6.416985
6.628,-6.774675,-5.767145,-6.032302
6.632,-8.316347,-6.774675,-5.767145
6.636,-8.719823,-8.316347,-6.774675
6.64,-7.133533,-8.719823,-8.316347
6.644,-3.862216,-7.133533,-8.719823
6.648,0.306721,-3.862216,-7.133533
6.652,4.687457,0.306721,-3.862216
6.656,8.619905,4.687457,0.306721
6.66,11.798021,8.619905,4.687457
6.664,14.463057,11.798021,8.619905
6.668,17.02244,14.463057,11.798021
6.672,19.845757,17.02244,14.463057
6.676,22.90078,19.845757,17.02244
6.68,25.56575,22.90078,19.845757
6.684,26.524397,25.56575,22.90078
6.688,24.498924,26.524397,25.56575
6.692,19.759792,24.498924,26.524397
6.696,13.973222,19.759792,24.498924
6.7,9.106662,13.973222,19.759792
6.704,6.403712,9.106662,13.973222
6.708,5.770179,6.403712,9.106662
6.712,6.16584,5.770179,6.403712
6.716,6.595634,6.16584,5.770179
6.72,7.093332,6.595634,6.16584
6.724,8.092347,7.093332,6.595634
6.728,9.647657,8.092347,7.093332
6.732,11.863684,9.647657,8.092347
6.736,14.46352,11.863684,9.647657
6.74,16.634209,14.46352,11.863684
6.744,17.797894,16.634209,14.46352
6.748,18.236824,17.797894,16.634209
6.752,18.6364,18.236824,17.797894
6.756,19.198179,18.6364,18.236824
6.76,19.764524,19.198179,18.6364
6.764,19.867178,19.764524,19.198179
6.768,19.125858,19.867178,19.764524
6.772,17.970007,19.125858,19.867178
6.776,16.866051,17.970007,19.125858
6.78,15.757725,16.866051,17.970007
6.784,14.543777,15.757725,16.866051
6.788,13.63984,14.543777,15.757725
6.792,13.33387,13.63984,14.543777
6.796,12.74788,13.33387,13.63984
6.8,10.927397,12.74788,13.33387
6.804,8.581347,10.927397,12.74788
6.808,7.570381,8.581347,10.927397
6.812,8.532722,7.570381,8.581347
6.816,9.862525,8.532722,7.570381
6.82,10.010497,9.862525,8.532722
6.824,9.14306,10.010497,9.862525
6.828,8.085381,9.14306,10.010497
6.832,7.191912,8.085381,9.14306
6.836,6.633522,7.191912,8.085381
6.84,6.914473,6.633522,7.191912
6.844,7.953322,6.914473,6.633522
6.848,8.642808,7.953322,6.914473
6.852,8.299057,8.642808,7.953322
6.856,7.412919,8.299057,8.642808
6.86,7.019374,7.412919,8.299057
6.864,7.289413,7.019374,7.412919
6.868,7.206842,7.289413,7.019374
6.872,5.975608,7.206842,7.289413
6.876,4.178757,5.975608,7.206842
6.88,3.314071,4.178757,5.975608
6.884,3.943322,3.314071,4.178757
6.888,5.017817,3.943322,3.314071
6.892,5.095519,5.017817,3.943322
6.896,3.470884,5.095519,5.017817
6.9,0.908076,3.470884,5.095519
6.904,-1.238557,0.908076,3.470884
6.908,-2.307274,-1.238557,0.908076
6.912,-1.968516,-2.307274,-1.238557
6.916,-0.04555,-1.968516,-2.307274
6.92,2.794615,-0.04555,-1.968516
6.924,5.084166,2.794615,-0.04555
6.928,6.123614,5.084166,2.794615
6.932,6.685269,6.123614,5.084166
6.936,7.310023,6.685269,6.123614
6.94,7.55761,7.310023,6.685269
6.944,6.997253,7.55761,7.310023
6.948,6.108522,6.997253,7.55761
6.952,5.864046,6.108522,6.997253
6.956,6.267081,5.864046,6.108522
6.96,6.813535,6.267081,5.864046
6.964,7.860338,6.813535,6.267081
6.968,9.965077,7.860338,6.813535
6.972,12.462329,9.965077,7.860338
6.976,13.790364,12.462329,9.965077
6.98,13.381054,13.790364,12.462329
6.984,11.700106,13.381054,13.790364
6.988,9.125469,11.700106,13.381054
6.992,6.044208,9.125469,11.700106
6.996,2.894747,6.044208,9.125469
7,-0.032945,2.894747,6.044208
7.004,-2.544216,-0.032945,2.894747
7.008,-4.255023,-2.544216,-0.032945
7.012,-4.640924,-4.255023,-2.544216
7.016,-3.723564,-4.640924,-4.255023
7.02,-1.717883,-3.723564,-4.640924
7.024,1.15006,-1.717883,-3.723564
7.028,4.187246,1.15006,-1.717883
7.032,6.548353,4.187246,1.15006
7.036,7.715052,6.548353,4.187246
7.04,7.312259,7.715052,6.548353
7.044,5.043549,7.312259,7.715052
7.048,1.704796,5.043549,7.312259
7.052,-0.685867,1.704796,5.043549
7.056,-1.248998,-0.685867,1.704796
7.06,-1.05758,-1.248998,-0.685867
7.064,-1.203255,-1.05758,-1.248998
7.068,-1.461238,-1.203255,-1.05758
7.072,-1.32629,-1.461238,-1.203255
7.076,-1.296914,-1.32629,-1.461238
7.08,-1.846613,-1.296914,-1.32629
7.084,-2.445044,-1.846613,-1.296914
7.088,-2.635252,-2.445044,-1.846613
7.092,-2.879275,-2.635252,-2.445044
7.096,-3.712696,-2.879275,-2.635252
7.1,-4.290143,-3.712696,-2.879275
7.104,-3.262393,-4.290143,-3.712696
7.108,-0.85853,-3.262393,-4.290143
7.112,1.420926,-0.85853,-3.262393
7.116,3.189437,1.420926,-0.85853
7.12,5.834292,3.189437,1.420926
7.124,9.336588,5.834292,3.189437
7.128,10.868778,9.336588,5.834292
7.132,8.772197,10.868778,9.336588
7.136,5.159802,8.772197,10.868778
7.14,2.772445,5.159802,8.772197
7.144,1.477653,2.772445,5.159802
7.148,-0.270552,1.477653,2.772445
7.152,-2.763582,-0.270552,1.477653
7.156,-5.694039,-2.763582,-0.270552
7.16,-8.900069,-5.694039,-2.763582
7.164,-11.545789,-8.900069,-5.694039
7.168,-12.172627,-11.545789,-8.900069
7.172,-10.5161,-12.172627,-11.545789
7.176,-8.482369,-10.5161,-12.172627
7.18,-7.942014,-8.482369,-10.5161
7.184,-8.730225,-7.942014,-8.482369
7.188,-9.802112,-8.730225,-7.942014
7.192,-11.098941,-9.802112,-8.730225
7.196,-13.175403,-11.098941,-9.802112
7.2,-15.441154,-13.175403,-11.098941
7.204,-16.552425,-15.441154,-13.175403
7.208,-15.899295,-16.552425,-15.441154
7.212,-13.689552,-15.899295,-16.552425
7.216,-10.831735,-13.689552,-15.899295
7.22,-8.652273,-10.831735,-13.689552
7.224,-8.05456,-8.652273,-10.831735
7.228,-8.721299,-8.05456,-8.652273
7.232,-9.445246,-8.721299,-8.05456
7.236,-9.166022,-9.445246,-8.721299
7.24,-7.576563,-9.166022,-9.445246
7.244,-5.769262,-7.576563,-9.166022
7.248,-5.65395,-5.769262,-7.576563
7.252,-7.521605,-5.65395,-5.769262
7.256,-9.865943,-7.521605,-5.65395
7.26,-11.754772,-9.865943,-7.521605
7.264,-13.533087,-11.754772,-9.865943
7.268,-14.635207,-13.533087,-11.754772
7.272,-13.269017,-14.635207,-13.533087
7.276,-9.391736,-13.269017,-14.635207
7.28,-5.159801,-9.391736,-13.269017
7.284,-2.132725,-5.159801,-9.391736
7.288,-0.142066,-2.132725,-5.159801
7.292,1.203723,-0.142066,-2.132725
7.296,1.480099,1.203723,-0.142066
7.3,0.771464,1.480099,1.203723
7.304,0.008461,0.771464,1.480099
7.308,-0.492707,0.008461,0.771464
7.312,-1.472405,-0.492707,0.008461
7.316,-3.761671,-1.472405,-0.492707
7.32,-6.807373,-3.761671,-1.472405
7.324,-8.835316,-6.807373,-3.761671
7.328,-8.774961,-8.835316,-6.807373
7.332,-7.130107,-8.774961,-8.835316
7.336,-4.797328,-7.130107,-8.774961
7.34,-1.813406,-4.797328,-7.130107
7.344,1.473019,-1.813406,-4.797328
7.348,3.858583,1.473019,-1.813406
7.352,4.906594,3.858583,1.473019
7.356,5.255391,4.906594,3.858583
7.36,5.442828,5.255391,4.906594
7.364,5.419372,5.442828,5.255391
7.368,5.121366,5.419372,5.442828
7.372,4.707365,5.121366,5.419372
7.376,3.899571,4.707365,5.121366
7.38,2.304612,3.899571,4.707365
7.384,-0.052443,2.304612,3.899571
7.388,-2.876203,-0.052443,2.304612
7.392,-5.731969,-2.876203,-0.052443
7.396,-8.057827,-5.731969,-2.876203
7.4,-9.409178,-8.057827,-5.731969
7.404,-10.18609,-9.409178,-8.057827
7.408,-11.212184,-10.18609,-9.409178
7.412,-12.314974,-11.212184,-10.18609
7.416,-12.712964,-12.314974,-11.212184
7.42,-12.069218,-12.712964,-12.314974
7.424,-10.474627,-12.069218,-12.712964
7.428,-7.575359,-10.474627,-12.069218
7.432,-2.963704,-7.575359,-10.474627
7.436,2.226058,-2.963704,-7.575359
7.44,6.059385,2.226058,-2.963704
7.444,7.662942,6.059385,2.226058
7.448,7.342006,7.662942,6.059385
7.452,5.80755,7.342006,7.662942
7.456,3.98408,5.80755,7.342006
7.46,3.127656,3.98408,5.80755
7.464,3.69897,3.127656,3.98408
7.468,4.714957,3.69897,3.127656
7.472,4.806114,4.714957,3.69897
7.476,3.508322,4.806114,4.714957
7.48,1.879938,3.508322,4.806114
7.484,1.443239,1.879938,3.508322
7.488,2.413509,1.443239,1.879938
7.492,3.42947,2.413509,1.443239
7.496,2.891234,3.42947,2.413509
7.5,0.994217,2.891234,3.42947
7.504,-0.364997,0.994217,2.891234
7.508,0.416298,-0.364997,0.994217
7.512,3.513923,0.416298,-0.364997
7.516,7.698137,3.513923,0.416298
7.52,10.949889,7.698137,3.513923
7.524,11.395606,10.949889,7.698137
7.528,8.842787,11.395606,10.949889
7.532,5.283614,8.842787,11.395606
7.536,2.60272,5.283614,8.842787
7.54,0.857625,2.60272,5.283614
7.544,-1.110435,0.857625,2.60272
7.548,-3.982086,-1.110435,0.857625
7.552,-7.370786,-3.982086,-1.110435
7.556,-10.790025,-7.370786,-3.982086
7.56,-14.127682,-10.790025,-7.370786
7.564,-17.422434,-14.127682,-10.790025
7.568,-20.390862,-17.422434,-14.127682
7.572,-22.035181,-20.390862,-17.422434
7.576,-21.210598,-22.035181,-20.390862
7.58,-17.492346,-21.210598,-22.035181
7.584,-11.922241,-17.492346,-21.210598
7.588,-6.771928,-11.922241,-17.492346
7.592,-3.859648,-6.771928,-11.922241
7.596,-3.156891,-3.859648,-6.771928
7.6,-2.823427,-3.156891,-3.859648
7.604,-0.88428,-2.823427,-3.156891
7.608,3.080634,-0.88428,-2.823427
7.612,7.881775,3.080634,-0.88428
7.616,11.662267,7.881775,3.080634
7.62,13.402861,11.662267,7.881775
7.624,13.260203,13.402861,11.662267
7.628,11.685459,13.260203,13.402861
7.632,9.218086,11.685459,13.260203
7.636,6.345275,9.218086,11.685459
7.64,3.443426,6.345275,9.218086
7.644,1.263019,3.443426,6.345275
7.648,1.254714,1.263019,3.443426
7.652,4.231334,1.254714,1.263019
7.656,8.745184,4.231334,1.254714
7.66,12.359103,8.745184,4.231334
7.664,13.479875,12.359103,8.745184
7.668,11.671152,13.479875,12.359103
7.672,7.803559,11.671152,13.479875
7.676,3.461748,7.803559,11.671152
7.68,-0.379399,3.461748,7.803559
7.684,-3.854151,-0.379399,3.461748
7.688,-7.293995,-3.854151,-0.379399
7.692,-10.549962,-7.293995,-3.854151
7.696,-13.234649,-10.549962,-7.293995
7.7,-14.889204,-13.234649,-10.549962
7.704,-15.394153,-14.889204,-13.234649
7.708,-15.151575,-15.394153,-14.889204
7.712,-14.570837,-15.151575,-15.394153
7.716,-14.161384,-14.570837,-15.151575
7.72,-14.1797,-14.161384,-14.570837
7.724,-14.268613,-14.1797,-14.161384
7.728,-14.380935,-14.268613,-14.1797
7.732,-15.239159,-14.380935,-14.268613
7.736,-17.102278,-15.239159,-14.380935
7.74,-18.797806,-17.102278,-15.239159
7.744,-18.950365,-18.797806,-17.102278
7.748,-17.353191,-18.950365,-18.797806
7.752,-14.815597,-17.353191,-18.950365
7.756,-12.56898,-14.815597,-17.353191
7.76,-11.004441,-12.56898,-14.815597
7.764,-9.662958,-11.004441,-12.56898
7.768,-8.567883,-9.662958,-11.004441
7.772,-8.157512,-8.567883,-9.662958
7.776,-8.48759,-8.157512,-8.567883
7.78,-9.420034,-8.48759,-8.157512
7.784,-11.577071,-9.420034,-8.48759
7.788,-15.425538,-11.577071,-9.420034
7.792,-19.66958,-15.425538,-11.577071
7.796,-22.416826,-19.66958,-15.425538
7.8,-22.865913,-22.416826,-19.66958
7.804,-21.150253,-22.865913,-22.416826
7.808,-17.67337,-21.150253,-22.865913
7.812,-13.621549,-17.67337,-21.150253
7.816,-11.163382,-13.621549,-17.67337
7.82,-11.234982,-11.163382,-13.621549
7.824,-12.551538,-11.234982,-11.163382
7.828,-13.539218,-12.551538,-11.234982
7.832,-13.867555,-13.539218,-12.551538
7.836,-14.009672,-13.867555,-13.539218
7.84,-14.009172,-14.009672,-13.867555
7.844,-13.593458,-14.009172,-14.009672
7.848,-12.692869,-13.593458,-14.009172
7.852,-11.015778,-12.692869,-13.593458
7.856,-8.345059,-11.015778,-12.692869
7.86,-5.337347,-8.345059,-11.015778
7.864,-3.560294,-5.337347,-8.345059
7.868,-3.957959,-3.560294,-5.337347
7.872,-5.489844,-3.957959,-3.560294
7.876,-6.532483,-5.489844,-3.957959
7.88,-6.488631,-6.532483,-5.489844
7.884,-5.513147,-6.488631,-6.532483
7.888,-3.385269,-5.513147,-6.488631
7.892,0.176025,-3.385269,-5.513147
7.896,3.998705,0.176025,-3.385269
7.9,6.266477,3.998705,0.176025
7.904,6.328436,6.266477,3.998705
7.908,4.881209,6.328436,6.266477
7.912,3.047498,4.881209,6.328436
7.916,1.724241,3.047498,4.881209
7.92,1.640978,1.724241,3.047498
7.924,2.664284,1.640978,1.724241
7.928,3.502163,2.664284,1.640978
7.932,2.797364,3.502163,2.664284
7.936,0.209141,2.797364,3.502163
7.94,-3.228176,0.209141,2.797364
7.944,-6.299651,-3.228176,0.209141
7.948,-8.796735,-6.299651,-3.228176
7.952,-11.082076,-8.796735,-6.299651
7.956,-13.257191,-11.082076,-8.796735
7.96,-15.148849,-13.257191,-11.082076
7.964,-16.971334,-15.148849,-13.257191
7.968,-18.888971,-16.971334,-15.148849
7.972,-20.05719,-18.888971,-16.971334
7.976,-19.119265,-20.05719,-18.888971
7.98,-15.454165,-19.119265,-20.05719
7.984,-10.053161,-15.454165,-19.119265
7.988,-4.624125,-10.053161,-15.454165
7.992,-0.231107,-4.624125,-10.053161
7.996,2.370476,-0.231107,-4.624125
8,2.640076,2.370476,-0.231107
8.004,1.139023,2.640076,2.370476
8.008,-0.593201,1.139023,2.640076
8.012,-1.703103,-0.593201,1.139023
8.016,-2.710947,-1.703103,-0.593201
8.02,-3.82628,-2.710947,-1.703103
8.024,-4.414485,-3.82628,-2.710947
8.028,-4.472616,-4.414485,-3.82628
8.032,-4.892343,-4.472616,-4.414485
8.036,-6.114916,-4.892343,-4.472616
8.04,-7.419445,-6.114916,-4.892343
8.044,-8.058616,-7.419445,-6.114916
8.048,-7.941665,-8.058616,-7.419445
8.052,-6.974605,-7.941665,-8.058616
8.056,-5.059981,-6.974605,-7.941665
8.06,-2.536487,-5.059981,-6.974605
8.064,-0.465558,-2.536487,-5.059981
8.068,-0.117715,-0.465558,-2.536487
8.072,-1.987643,-0.117715,-0.465558
8.076,-5.750548,-1.987643,-0.117715
8.08,-10.212478,-5.750548,-1.987643
8.084,-13.663854,-10.212478,-5.750548
8.088,-14.827071,-13.663854,-10.212478
8.092,-13.577057,-14.827071,-13.663854
8.096,-11.089273,-13.577057,-14.827071
8.1,-8.786976,-11.089273,-13.577057
8.104,-7.013547,-8.786976,-11.089273
8.108,-5.030704,-7.013547,-8.786976
8.112,-2.180742,-5.030704,-7.013547
8.116,1.31388,-2.180742,-5.030704
8.12,5.011704,1.31388,-2.180742
8.124,8.220679,5.011704,1.31388
8.128,10.112497,8.220679,5.011704
8.132,10.903924,10.112497,8.220679
8.136,11.289278,10.903924,10.112497
8.14,11.141143,11.289278,10.903924
8.144,9.815636,11.141143,11.289278
8.148,7.239603,9.815636,11.141143
8.152,3.996395,7.239603,9.815636
8.156,0.714571,3.996395,7.239603
8.16,-1.605816,0.714571,3.996395
8.164,-2.28137,-1.605816,0.714571
8.168,-1.700383,-2.28137,-1.605816
8.172,-0.371273,-1.700383,-2.28137
8.176,1.503261,-0.371273,-1.700383
8.18,3.678873,1.503261,-0.371273
8.184,5.538333,3.678873,1.503261
8.188,6.37491,5.538333,3.678873
8.192,5.893743,6.37491,5.538333
8.196,4.426704,5.893743,6.37491
8.2,3.063728,4.426704,5.893743
8.204,2.732372,3.063728,4.426704
8.208,3.49641,2.732372,3.063728
8.212,4.812382,3.49641,2.732372
8.216,5.635856,4.812382,3.49641
8.22,5.314318,5.635856,4.812382
8.224,4.453168,5.314318,5.635856
8.228,4.258151,4.453168,5.314318
8.232,5.216122,4.258151,4.453168
8.236,6.607108,5.216122,4.258151
8.24,7.470222,6.607108,5.216122
8.244,7.362903,7.470222,6.607108
8.248,6.601183,7.362903,7.470222
8.252,6.253885,6.601183,7.362903
8.256,7.036477,6.253885,6.601183
8.26,8.442523,7.036477,6.253885
8.264,9.346871,8.442523,7.036477
8.268,9.329744,9.346871,8.442523
8.272,8.980774,9.329744,9.346871
8.276,8.869156,8.980774,9.329744
8.28,9.505994,8.869156,8.980774
8.284,11.208695,9.505994,8.869156
8.288,13.012988,11.208695,9.505994
8.292,13.123981,13.012988,11.208695
8.296,10.949327,13.123981,13.012988
8.3,8.025414,10.949327,13.123981
8.304,6.20799,8.025414,10.949327
8.308,5.989842,6.20799,8.025414
8.312,6.78617,5.989842,6.20799
8.316,7.570356,6.78617,5.989842
8.32,7.821932,7.570356,6.78617
8.324,7.910376,7.821932,7.570356
8.328,8.72644,7.910376,7.821932
8.332,11.007262,8.72644,7.910376
8.336,14.317512,11.007262,8.72644
8.34,17.241455,14.317512,11.007262
8.344,18.799406,17.241455,14.317512
8.348,19.298559,18.799406,17.241455
8.352,19.26585,19.298559,18.799406
8.356,18.247265,19.26585,19.298559
8.36,16.12162,18.247265,19.26585
8.364,13.718458,16.12162,18.247265
8.368,11.608062,13.718458,16.12162
8.372,9.736675,11.608062,13.718458
8.376,7.876677,9.736675,11.608062
8.38,5.844613,7.876677,9.736675
8.384,3.3555,5.844613,7.876677
8.388,0.557505,3.3555,5.844613
8.392,-1.353515,0.557505,3.3555
8.396,-1.055334,-1.353515,0.557505
8.4,1.86966,-1.055334,-1.353515
8.404,6.457717,1.86966,-1.055334
8.408,11.210401,6.457717,1.86966
8.412,15.356156,11.210401,6.457717
8.416,18.83028,15.356156,11.210401
8.42,21.608545,18.83028,15.356156
8.424,23.019352,21.608545,18.83028
8.428,22.33321,23.019352,21.608545
8.432,20.191236,22.33321,23.019352
8.436,17.931747,20.191236,22.33321
8.44,16.115515,17.931747,20.191236
8.444,14.554688,16.115515,17.931747
8.448,13.171743,14.554688,16.115515
8.452,11.740546,13.171743,14.554688
8.456,9.736949,11.740546,13.171743
8.46,7.688965,9.736949,11.740546
8.464,6.857427,7.688965,9.736949
8.468,7.285829,6.857427,7.688965
8.472,7.885545,7.285829,6.857427
8.476,8.219078,7.885545,7.285829
8.48,9.212745,8.219078,7.885545
8.484,11.538293,9.212745,8.219078
8.488,14.328647,11.538293,9.212745
8.492,16.270428,14.328647,11.538293
8.496,16.962622,16.270428,14.328647
8.5,16.821184,16.962622,16.270428
8.504,15.949403,16.821184,16.962622
8.508,14.058758,15.949403,16.821184
8.512,11.478874,14.058758,15.949403
8.516,8.826702,11.478874,14.058758
8.52,6.056204,8.826702,11.478874
8.524,2.692996,6.056204,8.826702
8.528,-0.968467,2.692996,6.056204
8.532,-3.732703,-0.968467,2.692996
8.536,-5.027092,-3.732703,-0.968467
8.54,-5.236638,-5.027092,-3.732703
8.544,-4.779052,-5.236638,-5.027092
8.548,-3.836261,-4.779052,-5.236638
8.552,-2.539943,-3.836261,-4.779052
8.556,-1.208185,-2.539943,-3.836261
8.56,0.002911,-1.208185,-2.539943
8.564,1.209627,0.002911,-1.208185
8.568,2.630119,1.209627,0.002911
8.572,4.173844,2.630119,1.209627
8.576,4.973411,4.173844,2.630119
8.58,4.333548,4.973411,4.173844
8.584,2.6204,4.333548,4.973411
8.588,0.610997,2.6204,4.333548
8.592,-1.233001,0.610997,2.6204
8.596,-3.169585,-1.233001,0.610997
8.6,-6.017064,-3.169585,-1.233001
8.604,-10.410629,-6.017064,-3.169585
8.608,-15.640911,-10.410629,-6.017064
8.612,-20.09338,-15.640911,-10.410629
8.616,-23.210135,-20.09338,-15.640911
8.62,-25.199883,-23.210135,-20.09338
8.624,-26.044613,-25.199883,-23.210135
8.628,-26.069685,-26.044613,-25.199883
8.632,-26.095976,-26.069685,-26.044613
8.636,-26.34206,-26.095976,-26.069685
8.64,-25.545082,-26.34206,-26.095976
8.644,-22.321922,-25.545082,-26.34206
8.648,-16.720852,-22.321922,-25.545082
8.652,-9.73534,-16.720852,-22.321922
8.656,-2.4265,-9.73534,-16.720852
8.66,4.410176,-2.4265,-9.73534
8.664,10.063482,4.410176,-2.4265
8.668,14.35279,10.063482,4.410176
8.672,17.76091,14.35279,10.063482
8.676,20.36607,17.76091,14.35279
8.68,21.732559,20.36607,17.76091
8.684,21.312181,21.732559,20.36607
8.688,18.636078,21.312181,21.732559
8.692,14.012799,18.636078,21.312181
8.696,8.699042,14.012799,18.636078
8.7,4.200199,8.699042,14.012799
8.704,1.032161,4.200199,8.699042
8.708,-1.395666,1.032161,4.200199
8.712,-3.786381,-1.395666,1.032161
8.716,-6.489274,-3.786381,-1.395666
8.72,-9.248328,-6.489274,-3.786381
8.724,-11.415007,-9.248328,-6.489274
8.728,-12.469885,-11.415007,-9.248328
8.732,-12.121655,-12.469885,-11.415007
8.736,-10.212904,-12.121655,-12.469885
8.74,-6.453747,-10.212904,-12.121655
8.744,-0.913467,-6.453747,-10.212904
8.748,5.505116,-0.913467,-6.453747
8.752,11.252764,5.505116,-0.913467
8.756,14.399644,11.252764,5.505116
8.76,14.067549,14.399644,11.252764
8.764,11.555603,14.067549,14.399644
8.768,9.127944,11.555603,14.067549
8.772,7.926525,9.127944,11.555603
8.776,7.468282,7.926525,9.127944
8.78,6.939028,7.468282,7.926525
8.784,5.838566,6.939028,7.468282
8.788,4.279522,5.838566,6.939028
8.792,3.558533,4.279522,5.838566
8.796,4.844874,3.558533,4.279522
8.8,7.283172,4.844874,3.558533
8.804,8.414719,7.283172,4.844874
8.808,7.180671,8.414719,7.283172
8.812,5.357178,7.180671,8.414719
8.816,5.136429,5.357178,7.180671
8.82,7.08393,5.136429,5.357178
8.824,10.443421,7.08393,5.136429
8.828,13.873315,10.443421,7.08393
8.832,15.780588,13.873315,10.443421
8.836,15.092071,15.780588,13.873315
8.84,12.757934,15.092071,15.780588
8.844,10.749557,12.757934,15.092071
8.848,9.227904,10.749557,12.757934
8.852,6.531153,9.227904,10.749557
8.856,1.873578,6.531153,9.227904
8.86,-2.990913,1.873578,6.531153
8.864,-5.815882,-2.990913,1.873578
8.868,-6.193834,-5.815882,-2.990913
8.872,-5.137596,-6.193834,-5.815882
8.876,-3.877487,-5.137596,-6.193834
8.88,-2.907637,-3.877487,-5.137596
8.884,-1.852995,-2.907637,-3.877487
8.888,0.004931,-1.852995,-2.907637
8.892,2.960156,0.004931,-1.852995
8.896,6.292996,2.960156,0.004931
8.9,9.152993,6.292996,2.960156
8.904,11.047098,9.152993,6.292996
8.908,11.697104,11.047098,9.152993
8.912,11.33956,11.697104,11.047098
8.916,10.558542,11.33956,11.697104
8.92,9.496195,10.558542,11.33956
8.924,7.676672,9.496195,10.558542
8.928,5.445358,7.676672,9.496195
8.932,4.205991,5.445358,7.676672
8.936,4.360047,4.205991,5.445358
8.94,5.116912,4.360047,4.205991
8.944,5.941694,5.116912,4.360047
8.948,6.549476,5.941694,5.116912
8.952,6.53055,6.549476,5.941694
8.956,5.946074,6.53055,6.549476
8.96,5.524761,5.946074,6.53055
8.964,5.461577,5.524761,5.946074
8.968,5.457093,5.461577,5.524761
8.972,5.832199,5.457093,5.461577
8.976,6.77511,5.832199,5.457093
8.98,7.223983,6.77511,5.832199
8.984,5.851312,7.223983,6.77511
8.988,2.935362,5.851312,7.223983
8.992,0.198978,2.935362,5.851312
8.996,-1.335457,0.198978,2.935362
9,-1.829144,-1.335457,0.198978
9.004,-1.99271,-1.829144,-1.335457
9.008,-2.666759,-1.99271,-1.829144
9.012,-4.18296,-2.666759,-1.99271
9.016,-6.177604,-4.18296,-2.666759
9.02,-8.050087,-6.177604,-4.18296
9.024,-9.571364,-8.050087,-6.177604
9.028,-10.748549,-9.571364,-8.050087
9.032,-11.433888,-10.748549,-9.571364
9.036,-11.453054,-11.433888,-10.748549
9.04,-10.30233,-11.453054,-11.433888
9.044,-7.680762,-10.30233,-11.453054
9.048,-4.498265,-7.680762,-10.30233
9.052,-2.465975,-4.498265,-7.680762
9.056,-2.521727,-2.465975,-4.498265
9.06,-3.953627,-2.521727,-2.465975
9.064,-5.616337,-3.953627,-2.521727
9.068,-7.048442,-5.616337,-3.953627
9.072,-7.967702,-7.048442,-5.616337
9.076,-8.536582,-7.967702,-7.048442
9.08,-9.653433,-8.536582,-7.967702
9.084,-11.611633,-9.653433,-8.536582
9.088,-13.011535,-11.611633,-9.653433
9.092,-12.913402,-13.011535,-11.611633
9.096,-12.730547,-12.913402,-13.011535
9.1,-13.470381,-12.730547,-12.913402
9.104,-13.870882,-13.470381,-12.730547
9.108,-13.135481,-13.870882,-13.470381
9.112,-12.26928,-13.135481,-13.870882
9.116,-11.99646,-12.26928,-13.135481
9.12,-11.503697,-11.99646,-12.26928
9.124,-10.105381,-11.503697,-11.99646
9.128,-8.298079,-10.105381,-11.503697
9.132,-6.840653,-8.298079,-10.105381
9.136,-6.081263,-6.840653,-8.298079
9.14,-5.79599,-6.081263,-6.840653
9.144,-5.891386,-5.79599,-6.081263
9.148,-6.771981,-5.891386,-5.79599
9.152,-8.158502,-6.771981,-5.891386
9.156,-9.098424,-8.158502,-6.771981
9.16,-9.464226,-9.098424,-8.158502
9.164,-10.312087,-9.464226,-9.098424
9.168,-12.027575,-10.312087,-9.464226
9.172,-13.343549,-12.027575,-10.312087
9.176,-13.296583,-13.343549,-12.027575
9.18,-12.312757,-13.296583,-13.343549
9.184,-11.413611,-12.312757,-13.296583
9.188,-11.145192,-11.413611,-12.312757
9.192,-11.340823,-11.145192,-11.413611
9.196,-11.754128,-11.340823,-11.145192
9.2,-12.088321,-11.754128,-11.340823
9.204,-11.950739,-12.088321,-11.754128
9.208,-11.129657,-11.950739,-12.088321
9.212,-9.812614,-11.129657,-11.950739
9.216,-8.679749,-9.812614,-11.129657
9.22,-7.999596,-8.679749,-9.812614
9.224,-7.313332,-7.999596,-8.679749
9.228,-6.155053,-7.313332,-7.999596
9.232,-4.80565,-6.155053,-7.313332
9.236,-4.049889,-4.80565,-6.155053
9.24,-3.871597,-4.049889,-4.80565
9.244,-3.339866,-3.871597,-4.049889
9.248,-1.808275,-3.339866,-3.871597
9.252,0.590869,-1.808275,-3.339866
9.256,3.112906,0.590869,-1.808275
9.26,4.97235,3.112906,0.590869
9.264,5.483225,4.97235,3.112906
9.268,4.269476,5.483225,4.97235
9.272,2.028351,4.269476,5.483225
9.276,0.48217,2.028351,4.269476
9.28,1.276325,0.48217,2.028351
9.284,4.102804,1.276325,0.48217
9.288,6.649579,4.102804,1.276325
9.292,7.342749,6.649579,4.102804
9.296,6.732857,7.342749,6.649579
9.3,5.960508,6.732857,7.342749
9.304,4.841114,5.960508,6.732857
9.308,2.435944,4.841114,5.960508
9.312,-1.109156,2.435944,4.841114
9.316,-4.755943,-1.109156,2.435944
9.32,-7.457821,-4.755943,-1.109156
9.324,-8.594707,-7.457821,-4.755943
9.328,-7.988781,-8.594707,-7.457821
9.332,-5.913266,-7.988781,-8.594707
9.336,-3.115004,-5.913266,-7.988781
9.34,-0.195587,-3.115004,-5.913266
9.344,2.536421,-0.195587,-3.115004
9.348,4.89782,2.536421,-0.195587
9.352,6.714888,4.89782,2.536421
9.356,7.150703,6.714888,4.89782
9.36,5.425111,7.150703,6.714888
9.364,2.285568,5.425111,7.150703
9.368,-0.23183,2.285568,5.425111
9.372,-0.681206,-0.23183,2.285568
9.376,0.685222,-0.681206,-0.23183
9.38,2.782143,0.685222,-0.681206
9.384,4.583204,2.782143,0.685222
9.388,5.57708,4.583204,2.782143
9.392,5.72484,5.57708,4.583204
9.396,4.459226,5.72484,5.57708
9.4,1.012081,4.459226,5.72484
9.404,-4.224112,1.012081,4.459226
9.408,-9.451604,-4.224112,1.012081
9.412,-12.874757,-9.451604,-4.224112
9.416,-14.279752,-12.874757,-9.451604
9.42,-14.521075,-14.279752,-12.874757
9.424,-14.191901,-14.521075,-14.279752
9.428,-13.369452,-14.191901,-14.521075
9.432,-12.154649,-13.369452,-14.191901
9.436,-10.984365,-12.154649,-13.369452
9.44,-9.551422,-10.984365,-12.154649
9.444,-6.878921,-9.551422,-10.984365
9.448,-2.936142,-6.878921,-9.551422
9.452,0.947828,-2.936142,-6.878921
9.456,3.630708,0.947828,-2.936142
9.46,5.250956,3.630708,0.947828
9.464,5.820286,5.250956,3.630708
9.468,4.451916,5.820286,5.250956
9.472,1.042262,4.451916,5.820286
9.476,-3.179874,1.042262,4.451916
9.48,-6.889467,-3.179874,1.042262
9.484,-9.624695,-6.889467,-3.179874
9.488,-11.199749,-9.624695,-6.889467
9.492,-11.530889,-11.199749,-9.624695
9.496,-11.210768,-11.530889,-11.199749
9.5,-10.687316,-11.210768,-11.530889
9.504,-9.654103,-10.687316,-11.210768
9.508,-7.78384,-9.654103,-10.687316
9.512,-5.227883,-7.78384,-9.654103
9.516,-2.50578,-5.227883,-7.78384
9.52,-0.044282,-2.50578,-5.227883
9.524,1.828048,-0.044282,-2.50578
9.528,2.77412,1.828048,-0.044282
9.532,2.407803,2.77412,1.828048
9.536,0.581147,2.407803,2.77412
9.54,-1.863839,0.581147,2.407803
9.544,-4.147579,-1.863839,0.581147
9.548,-6.630284,-4.147579,-1.863839
9.552,-9.554481,-6.630284,-4.147579
9.556,-12.115766,-9.554481,-6.630284
9.56,-13.254201,-12.115766,-9.554481
9.564,-12.672215,-13.254201,-12.115766
9.568,-10.944509,-12.672215,-13.254201
9.572,-9.313221,-10.944509,-12.672215
9.576,-9.169318,-9.313221,-10.944509
9.58,-10.68071,-9.169318,-9.313221
9.584,-12.760162,-10.68071,-9.169318
9.588,-14.154947,-12.760162,-10.68071
9.592,-13.747675,-14.154947,-12.760162
9.596,-10.819587,-13.747675,-14.154947
9.6,-5.728942,-10.819587,-13.747675
9.604,-0.365413,-5.728942,-10.819587
9.608,3.038224,-0.365413,-5.728942
9.612,3.866012,3.038224,-0.365413
9.616,3.179704,3.866012,3.038224
9.62,2.118841,3.179704,3.866012
9.624,0.762784,2.118841,3.179704
9.628,-1.019829,0.762784,2.118841
9.632,-2.817072,-1.019829,0.762784
9.636,-4.779099,-2.817072,-1.019829
9.64,-7.646113,-4.779099,-2.817072
9.644,-11.283634,-7.646113,-4.779099
9.648,-14.183886,-11.283634,-7.646113
9.652,-14.813362,-14.183886,-11.283634
9.656,-13.037838,-14.813362,-14.183886
9.66,-10.139371,-13.037838,-14.813362
9.664,-7.610156,-10.139371,-13.037838
9.668,-5.505128,-7.610156,-10.139371
9.672,-2.602625,-5.505128,-7.610156
9.676,1.716328,-2.602625,-5.505128
9.68,7.183369,1.716328,-2.602625
9.684,13.240434,7.183369,1.716328
9.688,18.893511,13.240434,7.183369
9.692,22.943747,18.893511,13.240434
9.696,25.243086,22.943747,18.893511
9.7,27.069956,25.243086,22.943747
9.704,29.0455,27.069956,25.243086
9.708,29.794283,29.0455,27.069956
9.712,27.565918,29.794283,29.0455
9.716,22.173229,27.565918,29.794283
9.72,14.932178,22.173229,27.565918
9.724,7.36437,14.932178,22.173229
9.728,0.877392,7.36437,14.932178
9.732,-3.544207,0.877392,7.36437
9.736,-6.484727,-3.544207,0.877392
9.74,-9.363482,-6.484727,-3.544207
9.744,-12.698448,-9.363482,-6.484727
9.748,-15.623648,-12.698448,-9.363482
9.752,-16.692867,-15.623648,-12.698448
9.756,-15.150596,-16.692867,-15.623648
9.76,-11.416219,-15.150596,-16.692867
9.764,-6.57038,-11.416219,-15.150596
9.768,-1.507691,-6.57038,-11.416219
9.772,3.086135,-1.507691,-6.57038
9.776,6.308861,3.086135,-1.507691
9.78,8.077623,6.308861,3.086135
9.784,9.331773,8.077623,6.308861
9.788,10.671157,9.331773,8.077623
9.792,11.573439,10.671157,9.331773
9.796,10.866559,11.573439,10.671157
9.8,8.036436,10.866559,11.573439
9.804,3.720063,8.036436,10.866559
9.808,-0.785964,3.720063,8.036436
9.812,-4.51221,-0.785964,3.720063
9.816,-7.350544,-4.51221,-0.785964
9.82,-9.062303,-7.350544,-4.51221
9.824,-9.288725,-9.062303,-7.350544
9.828,-8.600797,-9.288725,-9.062303
9.832,-8.00745,-8.600797,-9.288725
9.836,-7.302838,-8.00745,-8.600797
9.84,-5.246296,-7.302838,-8.00745
9.844,-1.881238,-5.246296,-7.302838
9.848,1.247591,-1.881238,-5.246296
9.852,3.19749,1.247591,-1.881238
9.856,4.087428,3.19749,1.247591
9.86,4.108199,4.087428,3.19749
9.864,3.018053,4.108199,4.087428
9.868,0.938802,3.018053,4.108199
9.872,-1.094199,0.938802,3.018053
9.876,-2.291508,-1.094199,0.938802
9.88,-2.898864,-2.291508,-1.094199
9.884,-3.26195,-2.898864,-2.291508
9.888,-2.765591,-3.26195,-2.898864
9.892,-0.866638,-2.765591,-3.26195
9.896,1.334202,-0.866638,-2.765591
9.9,2.682614,1.334202,-0.866638
9.904,3.366278,2.682614,1.334202
9.908,3.483792,3.366278,2.682614
9.912,2.366207,3.483792,3.366278
9.916,-0.034253,2.366207,3.483792
9.92,-2.520315,-0.034253,2.366207
9.924,-4.220111,-2.520315,-0.034253
9.928,-5.230476,-4.220111,-2.520315
9.932,-5.512462,-5.230476,-4.220111
9.936,-4.824534,-5.512462,-5.230476
9.94,-3.232861,-4.824534,-5.512462
9.944,-1.266142,-3.232861,-4.824534
9.948,0.536283,-1.266142,-3.232861
9.952,1.89844,0.536283,-1.266142
9.956,2.330526,1.89844,0.536283
9.96,1.209781,2.330526,1.89844
9.964,-1.334399,1.209781,2.330526
9.968,-4.041857,-1.334399,1.209781
9.972,-5.555085,-4.041857,-1.334399
9.976,-5.760317,-5.555085,-4.041857
9.98,-5.161945,-5.760317,-5.555085
9.984,-4.012978,-5.161945,-5.760317
9.988,-2.697463,-4.012978,-5.161945
9.992,-1.993303,-2.697463,-4.012978
9.996,-2.086168,-1.993303,-2.697463
10,-1.721996,-2.086168,-1.993303
10.004,0.432126,-1.721996,-2.086168
10.008,4.076565,0.432126,-1.721996
10.012,7.789846,4.076565,0.432126
10.016,10.373296,7.789846,4.076565
10.02,11.566881,10.373296,7.789846
10.024,11.682429,11.566881,10.373296
10.028,11.188779,11.682429,11.566881
10.032,10.403518,11.188779,11.682429
10.036,9.320873,10.403518,11.188779
10.04,8.203602,9.320873,10.403518
10.044,7.585919,8.203602,9.320873
10.048,7.398084,7.585919,8.203602
10.052,6.963351,7.398084,7.585919
10.056,5.872409,6.963351,7.398084
10.06,4.244593,5.872409,6.963351
10.064,1.703985,4.244593,5.872409
10.068,-1.777357,1.703985,4.244593
10.072,-3.836305,-1.777357,1.703985
10.076,-1.658763,-3.836305,-1.777357
10.08,4.085688,-1.658763,-3.836305
10.084,9.80537,4.085688,-1.658763
10.088,13.507064,9.80537,4.085688
10.092,16.045034,13.507064,9.80537
10.096,18.145035,16.045034,13.507064
10.1,19.598244,18.145035,16.045034
10.104,20.429716,19.598244,18.145035
10.108,20.802202,20.429716,19.598244
10.112,20.339659,20.802202,20.429716
10.116,18.712029,20.339659,20.802202
10.12,16.560955,18.712029,20.339659
10.124,14.57675,16.560955,18.712029
10.128,12.517642,14.57675,16.560955
10.132,9.8086,12.517642,14.57675
10.136,6.51252,9.8086,12.517642
10.14,3.730218,6.51252,9.8086
10.144,2.64352,3.730218,6.51252
10.148,3.294331,2.64352,3.730218
10.152,4.541997,3.294331,2.64352
10.156,5.051091,4.541997,3.294331
10.16,4.731888,5.051091,4.541997
10.164,4.801255,4.731888,5.051091
10.168,6.381863,4.801255,4.731888
10.172,9.253491,6.381863,4.801255
10.176,11.810909,9.253491,6.381863
10.18,12.538514,11.810909,9.253491
10.184,11.127257,12.538514,11.810909
10.188,8.481943,11.127257,12.538514
10.192,6.121245,8.481943,11.127257
10.196,5.140437,6.121245,8.481943
10.2,5.693528,5.140437,6.121245
10.204,6.913858,5.693528,5.140437
10.208,7.791492,6.913858,5.693528
10.212,8.149118,7.791492,6.913858
10.216,8.331499,8.149118,7.791492
10.22,8.664027,8.331499,8.149118
10.224,9.032166,8.664027,8.331499
10.228,9.211632,9.032166,8.664027
10.232,9.452437,9.211632,9.032166
10.236,10.073872,9.452437,9.211632
10.24,11.176377,10.073872,9.452437
10.244,12.902181,11.176377,10.073872
10.248,15.501606,12.902181,11.176377
10.252,18.287539,15.501606,12.902181
10.256,19.475676,18.287539,15.501606
10.26,18.282484,19.475676,18.287539
10.264,15.081968,18.282484,19.475676
10.268,9.840262,15.081968,18.282484
10.272,2.479998,9.840262,15.081968
10.276,-5.876771,2.479998,9.840262
10.28,-13.194485,-5.876771,2.479998
10.284,-17.996264,-13.194485,-5.876771
10.288,-19.578564,-17.996264,-13.194485
10.292,-17.791059,-19.578564,-17.996264
10.296,-13.699389,-17.791059,-19.578564
10.3,-9.280796,-13.699389,-17.791059
10.304,-6.081477,-9.280796,-13.699389
10.308,-3.954127,-6.081477,-9.280796
10.312,-1.539372,-3.954127,-6.081477
10.316,1.922909,-1.539372,-3.954127
10.32,6.328122,1.922909,-1.539372
10.324,11.223888,6.328122,1.922909
10.328,15.88498,11.223888,6.328122
10.332,19.293665,15.88498,11.223888
10.336,20.326769,19.293665,15.88498
10.34,18.630655,20.326769,19.293665
10.344,14.776987,18.630655,20.326769
10.348,9.470523,14.776987,18.630655
10.352,3.016947,9.470523,14.776987
10.356,-3.940355,3.016947,9.470523
10.36,-9.49133,-3.940355,3.016947
10.364,-12.167004,-9.49133,-3.940355
10.368,-12.81679,-12.167004,-9.49133
10.372,-13.016086,-12.81679,-12.167004
10.376,-12.983438,-13.016086,-12.81679
10.38,-11.936135,-12.983438,-13.016086
10.384,-9.4934,-11.936135,-12.983438
10.388,-5.457755,-9.4934,-11.936135
10.392,0.256752,-5.457755,-9.4934
10.396,6.489275,0.256752,-5.457755
10.4,11.402367,6.489275,0.256752
10.404,14.30931,11.402367,6.489275
10.408,16.046076,14.30931,11.402367
10.412,17.56098,16.046076,14.30931
10.416,18.782543,17.56098,16.046076
10.42,19.292805,18.782543,17.56098
10.424,18.817083,19.292805,18.782543
10.428,17.251266,18.817083,19.292805
10.432,15.274871,17.251266,18.817083
10.436,13.989444,15.274871,17.251266
10.44,13.381558,13.989444,15.274871
10.444,11.926709,13.381558,13.989444
10.448,8.722106,11.926709,13.381558
10.452,4.629591,8.722106,11.926709
10.456,0.799431,4.629591,8.722106
10.46,-1.980788,0.799431,4.629591
10.464,-2.960312,-1.980788,0.799431
10.468,-1.995964,-2.960312,-1.980788
10.472,-0.021684,-1.995964,-2.960312
10.476,1.976212,-0.021684,-1.995964
10.48,4.21378,1.976212,-0.021684
10.484,6.966186,4.21378,1.976212
10.488,9.639223,6.966186,4.21378
10.492,11.897664,9.639223,6.966186
10.496,13.889827,11.897664,9.639223
10.5,15.40386,13.889827,11.897664
10.504,15.994665,15.40386,13.889827
10.508,15.949418,15.994665,15.40386
10.512,15.929639,15.949418,15.994665
10.516,15.802397,15.929639,15.949418
10.52,15.263223,15.802397,15.929639
10.524,14.301254,15.263223,15.802397
10.528,12.582559,14.301254,15.263223
10.532,9.535185,12.582559,14.301254
10.536,5.385981,9.535185,12.582559
10.54,1.613901,5.385981,9.535185
10.544,-0.624718,1.613901,5.385981
10.548,-1.581507,-0.624718,1.613901
10.552,-2.310868,-1.581507,-0.624718
10.556,-3.911391,-2.310868,-1.581507
10.56,-6.598656,-3.911391,-2.310868
10.564,-9.544502,-6.598656,-3.911391
10.568,-11.721418,-9.544502,-6.598656
10.572,-12.51736,-11.721418,-9.544502
10.576,-11.805662,-12.51736,-11.721418
10.58,-10.170527,-11.805662,-12.51736
10.584,-8.906981,-10.170527,-11.805662
10.588,-8.444462,-8.906981,-10.170527
10.592,-7.610437,-8.444462,-8.906981
10.596,-5.453745,-7.610437,-8.444462
10.6,-2.528301,-5.453745,-7.610437
10.604,-0.135137,-2.528301,-5.453745
10.608,0.95852,-0.135137,-2.528301
10.612,0.736211,0.95852,-0.135137
10.616,-0.592052,0.736211,0.95852
10.62,-2.287281,-0.592052,0.736211
10.624,-3.177699,-2.287281,-0.592052
10.628,-2.912006,-3.177699,-2.287281
10.632,-2.603697,-2.912006,-3.177699
10.636,-3.394945,-2.603697,-2.912006
10.64,-4.826149,-3.394945,-2.603697
10.644,-6.045052,-4.826149,-3.394945
10.648,-7.314775,-6.045052,-4.826149
10.652,-9.064312,-7.314775,-6.045052
10.656,-10.905156,-9.064312,-7.314775
10.66,-11.944656,-10.905156,-9.064312
10.664,-11.313904,-11.944656,-10.905156
10.668,-8.35998,-11.313904,-11.944656
10.672,-3.63313,-8.35998,-11.313904
10.676,0.629628,-3.63313,-8.35998
10.68,2.524559,0.629628,-3.63313
10.684,1.953254,2.524559,0.629628
10.688,-0.261396,1.953254,2.524559
10.692,-3.296731,-0.261396,1.953254
10.696,-6.328353,-3.296731,-0.261396
10.7,-8.318747,-6.328353,-3.296731
10.704,-8.717705,-8.318747,-6.328353
10.708,-7.737703,-8.717705,-8.318747
10.712,-5.709522,-7.737703,-8.717705
10.716,-3.272745,-5.709522,-7.737703
10.72,-1.657536,-3.272745,-5.709522
10.724,-2.008443,-1.657536,-3.272745
10.728,-4.202855,-2.008443,-1.657536
10.732,-6.650819,-4.202855,-2.008443
10.736,-7.798063,-6.650819,-4.202855
10.74,-7.458978,-7.798063,-6.650819
10.744,-7.023397,-7.458978,-7.798063
10.748,-8.005913,-7.023397,-7.458978
10.752,-10.353202,-8.005913,-7.023397
10.756,-12.771012,-10.353202,-8.005913
10.76,-13.853302,-12.771012,-10.353202
10.764,-13.180405,-13.853302,-12.771012
10.768,-11.490895,-13.180405,-13.853302
10.772,-9.671676,-11.490895,-13.180405
10.776,-8.015668,-9.671676,-11.490895
10.78,-6.231083,-8.015668,-9.671676
10.784,-4.345126,-6.231083,-8.015668
10.788,-3.012565,-4.345126,-6.231083
10.792,-2.673714,-3.012565,-4.345126
10.796,-3.104664,-2.673714,-3.012565
10.8,-3.644222,-3.104664,-2.673714
10.804,-3.69555,-3.644222,-3.104664
10.808,-2.727735,-3.69555,-3.644222
10.812,-0.905032,-2.727735,-3.69555
10.816,0.229289,-0.905032,-2.727735
10.82,-0.395962,0.229289,-0.905032
10.824,-2.015605,-0.395962,0.229289
10.828,-3.442982,-2.015605,-0.395962
10.832,-4.307542,-3.442982,-2.015605
10.836,-4.774459,-4.307542,-3.442982
10.84,-5.148816,-4.774459,-4.307542
10.844,-5.800379,-5.148816,-4.774459
10.848,-6.265762,-5.800379,-5.148816
10.852,-5.280282,-6.265762,-5.800379
10.856,-2.791406,-5.280282,-6.265762
10.86,-0.1922,-2.791406,-5.280282
10.864,1.328703,-0.1922,-2.791406
10.868,1.52871,1.328703,-0.1922
10.872,0.610879,1.52871,1.328703
10.876,-1.125726,0.610879,1.52871
10.88,-2.84361,-1.125726,0.610879
10.884,-3.677431,-2.84361,-1.125726
10.888,-3.696179,-3.677431,-2.84361
10.892,-3.631762,-3.696179,-3.677431
10.896,-3.987567,-3.631762,-3.696179
10.9,-4.50809,-3.987567,-3.631762
10.904,-5.162949,-4.50809,-3.987567
10.908,-6.606737,-5.162949,-4.50809
10.912,-9.044978,-6.606737,-5.162949
10.916,-11.821813,-9.044978,-6.606737
10.92,-14.249048,-11.821813,-9.044978
10.924,-16.177322,-14.249048,-11.821813
10.928,-17.206875,-16.177322,-14.249048
10.932,-16.605753,-17.206875,-16.177322
10.936,-14.714287,-16.605753,-17.206875
10.94,-12.693325,-14.714287,-16.605753
10.944,-11.314927,-12.693325,-14.714287
10.948,-10.520205,-11.314927,-12.693325
10.952,-9.836571,-10.520205,-11.314927
10.956,-9.038086,-9.836571,-10.520205
10.96,-8.346985,-9.038086,-9.836571
10.964,-8.41396,-8.346985,-9.038086
10.968,-9.467773,-8.41396,-8.346985
10.972,-10.765887,-9.467773,-8.41396
10.976,-11.525496,-10.765887,-9.467773
10.98,-11.55761,-11.525496,-10.765887
10.984,-11.487563,-11.55761,-11.525496
10.988,-12.281829,-11.487563,-11.55761
10.992,-14.426467,-12.281829,-11.487563
10.996,-17.628773,-14.426467,-12.281829
11,-20.64324,-17.628773,-14.426467
11.004,-22.131609,-20.64324,-17.628773
11.008,-21.967337,-22.131609,-20.64324
11.012,-21.285006,-21.967337,-22.131609
11.016,-21.420195,-21.285006,-21.967337
11.02,-22.464417,-21.420195,-21.285006
11.024,-23.340235,-22.464417,-21.420195
11.028,-23.005283,-23.340235,-22.464417
11.032,-21.411863,-23.005283,-23.340235
11.036,-19.400824,-21.411863,-23.005283
11.04,-17.265125,-19.400824,-21.411863
11.044,-14.55937,-17.265125,-19.400824
11.048,-11.185546,-14.55937,-17.265125
11.052,-7.734396,-11.185546,-14.55937
11.056,-4.974767,-7.734396,-11.185546
11.06,-3.007857,-4.974767,-7.734396
11.064,-1.575526,-3.007857,-4.974767
11.068,-0.774076,-1.575526,-3.007857
11.072,-0.90746,-0.774076,-1.575526
11.076,-1.941532,-0.90746,-0.774076
11.08,-3.162221,-1.941532,-0.90746
11.084,-3.945671,-3.162221,-1.941532
11.088,-4.068468,-3.945671,-3.162221
11.092,-3.513115,-4.068468,-3.945671
11.096,-2.79054,-3.513115,-4.068468
11.1,-2.71434,-2.79054,-3.513115
11.104,-3.796981,-2.71434,-2.79054
11.108,-6.082135,-3.796981,-2.71434
11.112,-9.116487,-6.082135,-3.796981
11.116,-11.891867,-9.116487,-6.082135
11.12,-13.193662,-11.891867,-9.116487
11.124,-12.851837,-13.193662,-11.891867
11.128,-11.740132,-12.851837,-13.193662
11.132,-10.478061,-11.740132,-12.851837
11.136,-9.205911,-10.478061,-11.740132
11.14,-8.085053,-9.205911,-10.478061
11.144,-7.50173,-8.085053,-9.205911
11.148,-7.689929,-7.50173,-8.085053
11.152,-8.376668,-7.689929,-7.50173
11.156,-8.767785,-8.376668,-7.689929
11.16,-7.732751,-8.767785,-8.376668
11.164,-5.098764,-7.732751,-8.767785
11.168,-1.9853,-5.098764,-7.732751
11.172,0.84335,-1.9853,-5.098764
11.176,3.541577,0.84335,-1.9853
11.18,6.172547,3.541577,0.84335
11.184,8.219617,6.172547,3.541577
11.188,9.560817,8.219617,6.172547
11.192,10.495965,9.560817,8.219617
11.196,10.602188,10.495965,9.560817
11.2,9.323675,10.602188,10.495965
11.204,7.103992,9.323675,10.602188
11.208,5.077903,7.103992,9.323675
11.212,3.625814,5.077903,7.103992
11.216,1.844665,3.625814,5.077903
11.22,-0.664796,1.844665,3.625814
11.224,-2.855358,-0.664796,1.844665
11.228,-3.440402,-2.855358,-0.664796
11.232,-2.211971,-3.440402,-2.855358
11.236,-0.143387,-2.211971,-3.440402
11.24,1.740165,-0.143387,-2.211971
11.244,2.891506,1.740165,-0.143387
11.248,3.296185,2.891506,1.740165
11.252,3.353885,3.296185,2.891506
11.256,3.224052,3.353885,3.296185
11.26,3.022371,3.224052,3.353885
11.264,3.052505,3.022371,3.224052
11.268,3.457807,3.052505,3.022371
11.272,4.049563,3.457807,3.052505
11.276,4.505331,4.049563,3.457807
11.28,4.672822,4.505331,4.049563
11.284,4.095406,4.672822,4.505331
11.288,2.54518,4.095406,4.672822
11.292,1.024317,2.54518,4.095406
11.296,0.57466,1.024317,2.54518
11.3,1.038268,0.57466,1.024317
11.304,1.402882,1.038268,0.57466
11.308,0.952778,1.402882,1.038268
11.312,-0.158673,0.952778,1.402882
11.316,-1.198782,-0.158673,0.952778
11.32,-1.300596,-1.198782,-0.158673
11.324,-0.432221,-1.300596,-1.198782
11.328,0.756433,-0.432221,-1.300596
11.332,1.804456,0.756433,-0.432221
11.336,2.229259,1.804456,0.756433
11.34,1.543546,2.229259,1.804456
11.344,-0.048763,1.543546,2.229259
11.348,-1.164332,-0.048763,1.543546
11.352,-0.421461,-1.164332,-0.048763
11.356,1.986757,-0.421461,-1.164332
11.36,4.935551,1.986757,-0.421461
11.364,7.560184,4.935551,1.986757
11.368,9.367182,7.560184,4.935551
11.372,10.01002,9.367182,7.560184
11.376,9.429589,10.01002,9.367182
11.38,8.271532,9.429589,10.01002
11.384,7.330679,8.271532,9.429589
11.388,6.809798,7.330679,8.271532
11.392,6.390705,6.809798,7.330679
11.396,5.81072,6.390705,6.809798
11.4,5.129881,5.81072,6.390705
11.404,4.030512,5.129881,5.81072
11.408,1.931831,4.030512,5.129881
11.412,-0.988614,1.931831,4.030512
11.416,-3.743945,-0.988614,1.931831
11.42,-4.80783,-3.743945,-0.988614
11.424,-3.222339,-4.80783,-3.743945
11.428,0.128682,-3.222339,-4.80783
11.432,3.183029,0.128682,-3.222339
11.436,4.545452,3.183029,0.128682
11.44,4.142651,4.545452,3.183029
11.444,2.351464,4.142651,4.545452
11.448,0.219549,2.351464,4.142651
11.452,-0.73904,0.219549,2.351464
11.456,-0.524873,-0.73904,0.219549
11.46,-0.304655,-0.524873,-0.73904
11.464,-0.271694,-0.304655,-0.524873
11.468,0.310985,-0.271694,-0.304655
11.472,1.164655,0.310985,-0.271694
11.476,1.004296,1.164655,0.310985
11.48,-0.473888,1.004296,1.164655
11.484,-2.643517,-0.473888,1.004296
11.488,-5.092953,-2.643517,-0.473888
11.492,-7.441988,-5.092953,-2.643517
11.496,-8.949425,-7.441988,-5.092953
11.5,-8.846636,-8.949425,-7.441988
11.504,-7.366731,-8.846636,-8.949425
11.508,-5.783855,-7.366731,-8.846636
11.512,-4.993659,-5.783855,-7.366731
11.516,-4.78019,-4.993659,-5.783855
11.52,-4.255312,-4.78019,-4.993659
11.524,-3.029572,-4.255312,-4.78019
11.528,-1.484179,-3.029572,-4.255312
11.532,-0.07268,-1.484179,-3.029572
11.536,0.986038,-0.07268,-1.484179
11.54,1.602474,0.986038,-0.07268
11.544,1.314417,1.602474,0.986038
11.548,-0.093924,1.314417,1.602474
11.552,-1.607876,-0.093924,1.314417
11.556,-2.107602,-1.607876,-0.093924
11.56,-1.621236,-2.107602,-1.607876
11.564,-0.835239,-1.621236,-2.107602
11.568,0.207539,-0.835239,-1.621236
11.572,1.826801,0.207539,-0.835239
11.576,3.536614,1.826801,0.207539
11.58,4.483733,3.536614,1.826801
11.584,4.305093,4.483733,3.536614
11.588,3.083142,4.305093,4.483733
11.592,0.990125,3.083142,4.305093
11.596,-1.53605,0.990125,3.083142
11.6,-3.163397,-1.53605,0.990125
11.604,-2.785091,-3.163397,-1.53605
11.608,-0.773923,-2.785091,-3.163397
11.612,1.701466,-0.773923,-2.785091
11.616,3.581279,1.701466,-0.773923
11.62,4.422054,3.581279,1.701466
11.624,4.526834,4.422054,3.581279
11.628,4.566265,4.526834,4.422054
11.632,4.614839,4.566265,4.526834
11.636,3.880599,4.614839,4.566265
11.64,2.285199,3.880599,4.614839
11.644,0.664726,2.285199,3.880599
11.648,-0.18036,0.664726,2.285199
11.652,0.283177,-0.18036,0.664726
11.656,2.141552,0.283177,-0.18036
11.66,4.738879,2.141552,0.283177
11.664,6.58485,4.738879,2.141552
11.668,6.583555,6.58485,4.738879
11.672,5.055566,6.583555,6.58485
11.676,2.945776,5.055566,6.583555
11.68,0.916865,2.945776,5.055566
11.684,-1.079169,0.916865,2.945776
11.688,-3.285937,-1.079169,0.916865
11.692,-5.314729,-3.285937,-1.079169
11.696,-6.349617,-5.314729,-3.285937
11.7,-5.780148,-6.349617,-5.314729
11.704,-3.880213,-5.780148,-6.349617
11.708,-1.564143,-3.880213,-5.780148
11.712,0.460548,-1.564143,-3.880213
11.716,1.870329,0.460548,-1.564143
11.72,2.748581,1.870329,0.460548
11.724,3.330888,2.748581,1.870329
11.728,4.038622,3.330888,2.748581
11.732,5.515868,4.038622,3.330888
11.736,7.747518,5.515868,4.038622
11.74,10.008656,7.747518,5.515868
11.744,11.627164,10.008656,7.747518
11.748,12.594561,11.627164,10.008656
11.752,13.09342,12.594561,11.627164
11.756,12.770787,13.09342,12.594561
11.76,11.74328,12.770787,13.09342
11.764,10.78385,11.74328,12.770787
11.768,10.223869,10.78385,11.74328
11.772,9.563228,10.223869,10.78385
11.776,8.216652,9.563228,10.223869
11.78,6.539543,8.216652,9.563228
11.784,5.749869,6.539543,8.216652
11.788,7.049568,5.749869,6.539543
11.792,10.178211,7.049568,5.749869
11.796,13.133193,10.178211,7.049568
11.8,14.485837,13.133193,10.178211
11.804,14.566048,14.485837,13.133193
11.808,14.175861,14.566048,14.485837
11.812,13.307769,14.175861,14.566048
11.816,11.593756,13.307769,14.175861
11.82,9.361726,11.593756,13.307769
11.824,7.029803,9.361726,11.593756
11.828,4.49696,7.029803,9.361726
11.832,1.985674,4.49696,7.029803
11.836,0.319216,1.985674,4.49696
11.84,-0.196964,0.319216,1.985674
11.844,-0.853942,-0.196964,0.319216
11.848,-2.897613,-0.853942,-0.196964
11.852,-5.332457,-2.897613,-0.853942
11.856,-5.979142,-5.332457,-2.897613
11.86,-4.152835,-5.979142,-5.332457
11.864,-1.450333,-4.152835,-5.979142
11.868,0.52892,-1.450333,-4.152835
11.872,1.803841,0.52892,-1.450333
11.876,2.730365,1.803841,0.52892
11.88,3.266971,2.730365,1.803841
11.884,3.476048,3.266971,2.730365
11.888,3.62995,3.476048,3.266971
11.892,3.661931,3.62995,3.476048
11.896,3.373539,3.661931,3.62995
11.9,3.187184,3.373539,3.661931
11.904,3.278875,3.187184,3.373539
11.908,2.959846,3.278875,3.187184
11.912,1.749606,2.959846,3.278875
11.916,-0.178685,1.749606,2.959846
11.92,-2.011214,-0.178685,1.749606
11.924,-2.486972,-2.011214,-0.178685
11.928,-0.659121,-2.486972,-2.011214
11.932,2.895228,-0.659121,-2.486972
11.936,6.59144,2.895228,-0.659121
11.94,10.220726,6.59144,2.895228
11.944,14.829309,10.220726,6.59144
11.948,20.403444,14.829309,10.220726
11.952,25.323343,20.403444,14.829309
11.956,28.018919,25.323343,20.403444
11.96,28.709473,28.018919,25.323343
11.964,28.606424,28.709473,28.018919
11.968,28.400494,28.606424,28.709473
11.972,27.996468,28.400494,28.606424
11.976,26.708729,27.996468,28.400494
11.98,23.388363,26.708729,27.996468
11.984,17.123785,23.388363,26.708729
11.988,9.167034,17.123785,23.388363
11.992,3.100264,9.167034,17.123785
11.996,1.379238,3.100264,9.167034
12,3.100757,1.379238,3.100264
12.004,5.321586,3.100757,1.379238
12.008,5.814339,5.321586,3.100757
12.012,4.459948,5.814339,5.321586
12.016,2.494404,4.459948,5.814339
12.02,1.344396,2.494404,4.459948
12.024,1.776473,1.344396,2.494404
12.028,3.744597,1.776473,1.344396
12.032,6.574416,3.744597,1.776473
12.036,9.115762,6.574416,3.744597
12.04,10.985362,9.115762,6.574416
12.044,12.646952,10.985362,9.115762
12.048,14.213968,12.646952,10.985362
12.052,15.204852,14.213968,12.646952
12.056,15.058723,15.204852,14.213968
12.06,13.557412,15.058723,15.204852
12.064,10.782733,13.557412,15.058723
12.068,7.2829,10.782733,13.557412
12.072,3.863326,7.2829,10.782733
12.076,0.831196,3.863326,7.2829
12.08,-1.387058,0.831196,3.863326
12.084,-2.082536,-1.387058,0.831196
12.088,-1.208723,-2.082536,-1.387058
12.092,0.712039,-1.208723,-2.082536
12.096,3.360545,0.712039,-1.208723
12.1,6.350308,3.360545,0.712039
12.104,8.304692,6.350308,3.360545
12.108,8.203163,8.304692,6.350308
12.112,6.997273,8.203163,8.304692
12.116,6.251995,6.997273,8.203163
12.12,6.668276,6.251995,6.997273
12.124,8.442588,6.668276,6.251995
12.128,11.700957,8.442588,6.668276
12.132,15.468753,11.700957,8.442588
12.136,17.677706,15.468753,11.700957
12.14,17.727514,17.677706,15.468753
12.144,16.816185,17.727514,17.677706
12.148,15.574543,16.816185,17.727514
12.152,13.191014,15.574543,16.816185
12.156,8.877512,13.191014,15.574543
12.16,3.243538,8.877512,13.191014
12.164,-2.2125,3.243538,8.877512
12.168,-6.050792,-2.2125,3.243538
12.172,-7.545328,-6.050792,-2.2125
12.176,-6.919874,-7.545328,-6.050792
12.18,-4.661516,-6.919874,-7.545328
12.184,-1.524331,-4.661516,-6.919874
12.188,1.173845,-1.524331,-4.661516
12.192,2.359675,1.173845,-1.524331
12.196,2.210461,2.359675,1.173845
12.2,2.003349,2.210461,2.359675
12.204,2.536442,2.003349,2.210461
12.208,3.719136,2.536442,2.003349
12.212,5.26704,3.719136,2.536442
12.216,6.777367,5.26704,3.719136
12.22,7.795832,6.777367,5.26704
12.224,7.870615,7.795832,6.777367
12.228,6.674755,7.870615,7.795832
12.232,4.14223,6.674755,7.870615
12.236,0.385981,4.14223,6.674755
12.24,-3.994147,0.385981,4.14223
12.244,-7.986675,-3.994147,0.385981
12.248,-10.586799,-7.986675,-3.994147
12.252,-11.412137,-10.586799,-7.986675
12.256,-11.087867,-11.412137,-10.586799
12.26,-10.659439,-11.087867,-11.412137
12.264,-10.731472,-10.659439,-11.087867
12.268,-10.944387,-10.731472,-10.659439
12.272,-10.609383,-10.944387,-10.731472
12.276,-9.919051,-10.609383,-10.944387
12.28,-9.498096,-9.919051,-10.609383
12.284,-9.537849,-9.498096,-9.919051
12.288,-9.73562,-9.537849,-9.498096
12.292,-9.772729,-9.73562,-9.537849
12.296,-9.573489,-9.772729,-9.73562
12.3,-9.034245,-9.573489,-9.772729
12.304,-8.2193,-9.034245,-9.573489
12.308,-7.381747,-8.2193,-9.034245
12.312,-6.179723,-7.381747,-8.2193
12.316,-3.804882,-6.179723,-7.381747
12.32,-0.277805,-3.804882,-6.179723
12.324,2.752002,-0.277805,-3.804882
12.328,3.763068,2.752002,-0.277805
12.332,3.063586,3.763068,2.752002
12.336,1.54087,3.063586,3.763068
12.34,-0.694707,1.54087,3.063586
12.344,-3.807127,-0.694707,1.54087
12.348,-7.172312,-3.807127,-0.694707
12.352,-9.733428,-7.172312,-3.807127
12.356,-11.247055,-9.733428,-7.172312
12.36,-12.153561,-11.247055,-9.733428
12.364,-13.266502,-12.153561,-11.247055
12.368,-15.486609,-13.266502,-12.153561
12.372,-18.896414,-15.486609,-13.266502
12.376,-22.203962,-18.896414,-15.486609
12.38,-23.521219,-22.203962,-18.896414
12.384,-22.56428,-23.521219,-22.203962
12.388,-20.795588,-22.56428,-23.521219
12.392,-19.287325,-20.795588,-22.56428
12.396,-17.555784,-19.287325,-20.795588
12.4,-14.180389,-17.555784,-19.287325
12.404,-8.741063,-14.180389,-17.555784
12.408,-2.355979,-8.741063,-14.180389
12.412,3.590393,-2.355979,-8.741063
12.416,8.078461,3.590393,-2.355979
12.42,10.500626,8.078461,3.590393
12.424,10.897982,10.500626,8.078461
12.428,10.268209,10.897982,10.500626
12.432,8.917289,10.268209,10.897982
12.436,5.180877,8.917289,10.268209
12.44,-1.762359,5.180877,8.917289
12.444,-9.82076,-1.762359,5.180877
12.448,-15.899706,-9.82076,-1.762359
12.452,-18.562551,-15.899706,-9.82076
12.456,-18.423525,-18.562551,-15.899706
12.46,-16.921843,-18.423525,-18.562551
12.464,-15.395208,-16.921843,-18.423525
12.468,-14.216028,-15.395208,-16.921843
12.472,-12.892078,-14.216028,-15.395208
12.476,-11.273444,-12.892078,-14.216028
12.48,-9.449411,-11.273444,-12.892078
12.484,-7.415728,-9.449411,-11.273444
12.488,-5.307518,-7.415728,-9.449411
12.492,-3.27397,-5.307518,-7.415728
12.496,-0.950317,-3.27397,-5.307518
12.5,2.315287,-0.950317,-3.27397
12.504,6.076463,2.315287,-0.950317
12.508,8.704943,6.076463,2.315287
12.512,8.765735,8.704943,6.076463
12.516,5.620775,8.765735,8.704943
12.52,-0.169918,5.620775,8.765735
12.524,-6.973225,-0.169918,5.620775
12.528,-12.920836,-6.973225,-0.169918
12.532,-17.110983,-12.920836,-6.973225
12.536,-20.021044,-17.110983,-12.920836
12.54,-22.29315,-20.021044,-17.110983
12.544,-23.882746,-22.29315,-20.021044
12.548,-24.183079,-23.882746,-22.29315
12.552,-22.796244,-24.183079,-23.882746
12.556,-20.134634,-22.796244,-24.183079
12.56,-16.498238,-20.134634,-22.796244
12.564,-11.713817,-16.498238,-20.134634
12.568,-6.242601,-11.713817,-16.498238
12.572,-1.696328,-6.242601,-11.713817
12.576,0.827235,-1.696328,-6.242601
12.58,2.188206,0.827235,-1.696328
12.584,3.307401,2.188206,0.827235
12.588,3.788623,3.307401,2.188206
12.592,3.65931,3.788623,3.307401
12.596,4.166235,3.65931,3.788623
12.6,5.678209,4.166235,3.65931
12.604,6.261639,5.678209,4.166235
12.608,4.27932,6.261639,5.678209
12.612,0.912167,4.27932,6.261639
12.616,-1.626063,0.912167,4.27932
12.62,-2.746587,-1.626063,0.912167
12.624,-3.316681,-2.746587,-1.626063
12.628,-3.635734,-3.316681,-2.746587
12.632,-3.198435,-3.635734,-3.316681
12.636,-2.178159,-3.198435,-3.635734
12.64,-1.551941,-2.178159,-3.198435
12.644,-2.23695,-1.551941,-2.178159
12.648,-4.321756,-2.23695,-1.551941
12.652,-7.016674,-4.321756,-2.23695
12.656,-9.473784,-7.016674,-4.321756
12.66,-11.086596,-9.473784,-7.016674
12.664,-11.335949,-11.086596,-9.473784
12.668,-9.86619,-11.335949,-11.086596
12.672,-7.307045,-9.86619,-11.335949
12.676,-5.281802,-7.307045,-9.86619
12.68,-4.235121,-5.281802,-7.307045
12.684,-2.817448,-4.235121,-5.281802
12.688,-0.083682,-2.817448,-4.235121
12.692,2.894091,-0.083682,-2.817448
12.696,4.324175,2.894091,-0.083682
12.7,3.861554,4.324175,2.894091
12.704,2.270479,3.861554,4.324175
12.708,-0.014827,2.270479,3.861554
12.712,-3.008419,-0.014827,2.270479
12.716,-6.412975,-3.008419,-0.014827
12.72,-8.967706,-6.412975,-3.008419
12.724,-9.558843,-8.967706,-6.412975
12.728,-8.69417,-9.558843,-8.967706
12.732,-8.164642,-8.69417,-9.558843
12.736,-9.302845,-8.164642,-8.69417
12.74,-11.623616,-9.302845,-8.164642
12.744,-13.614969,-11.623616,-9.302845
12.748,-14.274961,-13.614969,-11.623616
12.752,-13.507295,-14.274961,-13.614969
12.756,-12.035188,-13.507295,-14.274961
12.76,-11.172065,-12.035188,-13.507295
12.764,-12.199617,-11.172065,-12.035188
12.768,-14.796529,-12.199617,-11.172065
12.772,-16.6064,-14.796529,-12.199617
12.776,-15.403501,-16.6064,-14.796529
12.78,-10.826618,-15.403501,-16.6064
12.784,-4.297635,-10.826618,-15.403501
12.788,2.142253,-4.297635,-10.826618
12.792,6.78488,2.142253,-4.297635
12.796,8.729257,6.78488,2.142253
12.8,8.214376,8.729257,6.78488
12.804,6.10291,8.214376,8.729257
12.808,3.526813,6.10291,8.214376
12.812,1.708806,3.526813,6.10291
12.816,1.035669,1.708806,3.526813
12.82,0.905346,1.035669,1.708806
12.824,0.586263,0.905346,1.035669
12.828,0.083466,0.586263,0.905346
12.832,-0.205247,0.083466,0.586263
12.836,-0.19146,-0.205247,0.083466
12.84,0.06432,-0.19146,-0.205247
12.844,0.131282,0.06432,-0.19146
12.848,-0.535237,0.131282,0.06432
12.852,-1.741983,-0.535237,0.131282
12.856,-2.921624,-1.741983,-0.535237
12.86,-3.996497,-2.921624,-1.741983
12.864,-5.27124,-3.996497,-2.921624
12.868,-6.271647,-5.27124,-3.996497
12.872,-6.026495,-6.271647,-5.27124
12.876,-4.687957,-6.026495,-6.271647
12.88,-3.356915,-4.687957,-6.026495
12.884,-2.931393,-3.356915,-4.687957
12.888,-3.470275,-2.931393,-3.356915
12.892,-4.583044,-3.470275,-2.931393
12.896,-5.838922,-4.583044,-3.470275
12.9,-6.382751,-5.838922,-4.583044
12.904,-5.541834,-6.382751,-5.838922
12.908,-4.000262,-5.541834,-6.382751
12.912,-3.504391,-4.000262,-5.541834
12.916,-4.924029,-3.504391,-4.000262
12.92,-6.931708,-4.924029,-3.504391
12.924,-7.766641,-6.931708,-4.924029
12.928,-7.053403,-7.766641,-6.931708
12.932,-5.227599,-7.053403,-7.766641
12.936,-2.402728,-5.227599,-7.053403
12.94,1.433272,-2.402728,-5.227599
12.944,5.472783,1.433272,-2.402728
12.948,8.749337,5.472783,1.433272
12.952,11.106425,8.749337,5.472783
12.956,12.695885,11.106425,8.749337
12.96,13.515148,12.695885,11.106425
12.964,13.381216,13.515148,12.695885
12.968,12.445118,13.381216,13.515148
12.972,11.340828,12.445118,13.381216
12.976,10.493429,11.340828,12.445118
12.98,9.84832,10.493429,11.340828
12.984,9.176096,9.84832,10.493429
12.988,8.615162,9.176096,9.84832
12.992,8.675013,8.615162,9.176096
12.996,9.651482,8.675013,8.615162
13,11.35072,9.651482,8.675013
13.004,12.901078,11.35072,9.651482
13.008,13.34416,12.901078,11.35072
13.012,12.258503,13.34416,12.901078
13.016,9.605597,12.258503,13.34416
13.02,6.091222,9.605597,12.258503
13.024,3.053859,6.091222,9.605597
13.028,1.443475,3.053859,6.091222
13.032,1.249975,1.443475,3.053859
13.036,1.784162,1.249975,1.443475
13.04,2.632483,1.784162,1.249975
13.044,3.886271,2.632483,1.784162
13.048,5.787939,3.886271,2.632483
13.052,8.280346,5.787939,3.886271
13.056,10.641269,8.280346,5.787939
13.06,11.803447,10.641269,8.280346
13.064,11.135628,11.803447,10.641269
13.068,9.684699,11.135628,11.803447
13.072,9.500483,9.684699,11.135628
13.076,10.894438,9.500483,9.684699
13.08,12.42572,10.894438,9.500483
13.084,13.199543,12.42572,10.894438
13.088,13.491129,13.199543,12.42572
13.092,13.423868,13.491129,13.199543
13.096,12.728621,13.423868,13.491129
13.1,12.126025,12.728621,13.423868
13.104,12.59741,12.126025,12.728621
13.108,13.263718,12.59741,12.126025
13.112,12.013232,13.263718,12.59741
13.116,8.603648,12.013232,13.263718
13.12,5.460308,8.603648,12.013232
13.124,4.421495,5.460308,8.603648
13.128,5.050389,4.421495,5.460308
13.132,6.280687,5.050389,4.421495
13.136,7.559925,6.280687,5.050389
13.14,8.853334,7.559925,6.280687
13.144,10.433744,8.853334,7.559925
13.148,12.78463,10.433744,8.853334
13.152,15.955406,12.78463,10.433744
13.156,19.17585,15.955406,12.78463
13.16,21.730207,19.17585,15.955406
13.164,23.139513,21.730207,19.17585
13.168,22.817854,23.139513,21.730207
13.172,20.768904,22.817854,23.139513
13.176,18.264643,20.768904,22.817854
13.18,16.834646,18.264643,20.768904
13.184,16.314472,16.834646,18.264643
13.188,15.611104,16.314472,16.834646
13.192,14.64718,15.611104,16.314472
13.196,13.658358,14.64718,15.611104
13.2,12.034472,13.658358,14.64718
13.204,9.129826,12.034472,13.658358
13.208,5.839747,9.129826,12.034472
13.212,3.992499,5.839747,9.129826
13.216,4.171411,3.992499,5.839747
13.22,5.301001,4.171411,3.992499
13.224,5.890344,5.301001,4.171411
13.228,5.462075,5.890344,5.301001
13.232,4.375458,5.462075,5.890344
13.236,2.558575,4.375458,5.462075
13.24,0.079017,2.558575,4.375458
13.244,-1.967525,0.079017,2.558575
13.248,-2.415809,-1.967525,0.079017
13.252,-1.485823,-2.415809,-1.967525
13.256,-0.21357,-1.485823,-2.415809
13.26,1.282295,-0.21357,-1.485823
13.264,3.460169,1.282295,-0.21357
13.268,6.259018,3.460169,1.282295
13.272,9.218466,6.259018,3.460169
13.276,11.769821,9.218466,6.259018
13.28,13.326198,11.769821,9.218466
13.284,13.342708,13.326198,11.769821
13.288,11.819896,13.342708,13.326198
13.292,9.269173,11.819896,13.342708
13.296,6.069645,9.269173,11.819896
13.3,2.72251,6.069645,9.269173
13.304,-0.035888,2.72251,6.069645
13.308,-1.896875,-0.035888,2.72251
13.312,-3.185231,-1.896875,-0.035888
13.316,-3.978677,-3.185231,-1.896875
13.32,-3.657463,-3.978677,-3.185231
13.324,-2.289068,-3.657463,-3.978677
13.328,-0.784625,-2.289068,-3.657463
13.332,0.644133,-0.784625,-2.289068
13.336,2.732066,0.644133,-0.784625
13.34,5.977232,2.732066,0.644133
13.344,9.548123,5.977232,2.732066
13.348,11.769992,9.548123,5.977232
13.352,11.545523,11.769992,9.548123
13.356,9.068658,11.545523,11.769992
13.36,5.650901,9.068658,11.545523
13.364,2.518476,5.650901,9.068658
13.368,0.217918,2.518476,5.650901
13.372,-1.497195,0.217918,2.518476
13.376,-3.477093,-1.497195,0.217918
13.38,-6.157465,-3.477093,-1.497195
13.384,-8.844173,-6.157465,-3.477093
13.388,-9.645504,-8.844173,-6.157465
13.392,-7.092653,-9.645504,-8.844173
13.396,-2.333785,-7.092653,-9.645504
13.4,1.610409,-2.333785,-7.092653
13.404,2.656637,1.610409,-2.333785
13.408,1.157416,2.656637,1.610409
13.412,-1.396007,1.157416,2.656637
13.416,-3.904437,-1.396007,1.157416
13.42,-5.792377,-3.904437,-1.396007
13.424,-7.008344,-5.792377,-3.904437
13.428,-7.638959,-7.008344,-5.792377
13.432,-7.526711,-7.638959,-7.008344
13.436,-6.704943,-7.526711,-7.638959
13.44,-5.596153,-6.704943,-7.526711
13.444,-4.721761,-5.596153,-6.704943
13.448,-4.610873,-4.721761,-5.596153
13.452,-5.838695,-4.610873,-4.721761
13.456,-7.985224,-5.838695,-4.610873
13.46,-8.993596,-7.985224,-5.838695
13.464,-7.791232,-8.993596,-7.985224
13.468,-6.050096,-7.791232,-8.993596
13.472,-5.684208,-6.050096,-7.791232
13.476,-6.26148,-5.684208,-6.050096
13.48,-5.871836,-6.26148,-5.684208
13.484,-3.772207,-5.871836,-6.26148
13.488,-0.868602,-3.772207,-5.871836
13.492,1.498692,-0.868602,-3.772207
13.496,2.293777,1.498692,-0.868602
13.5,1.126411,2.293777,1.498692
13.504,-1.611988,1.126411,2.293777
13.508,-4.408385,-1.611988,1.126411
13.512,-5.634603,-4.408385,-1.611988
13.516,-5.409587,-5.634603,-4.408385
13.52,-4.993084,-5.409587,-5.634603
13.524,-5.147039,-4.993084,-5.409587
13.528,-5.868122,-5.147039,-4.993084
13.532,-7.269009,-5.868122,-5.147039
13.536,-9.401959,-7.269009,-5.868122
13.54,-11.09375,-9.401959,-7.269009
13.544,-10.810325,-11.09375,-9.401959
13.548,-8.323609,-10.810325,-11.09375
13.552,-4.895835,-8.323609,-10.810325
13.556,-2.269353,-4.895835,-8.323609
13.56,-1.449262,-2.269353,-4.895835
13.564,-2.42545,-1.449262,-2.269353
13.568,-4.022382,-2.42545,-1.449262
13.572,-4.596268,-4.022382,-2.42545
13.576,-3.645523,-4.596268,-4.022382
13.58,-1.828217,-3.645523,-4.596268
13.584,0.07217,-1.828217,-3.645523
13.588,1.557697,0.07217,-1.828217
13.592,2.078232,1.557697,0.07217
13.596,1.235914,2.078232,1.557697
13.6,-0.565383,1.235914,2.078232
13.604,-2.871148,-0.565383,1.235914
13.608,-5.590641,-2.871148,-0.565383
13.612,-8.358583,-5.590641,-2.871148
13.616,-10.681528,-8.358583,-5.590641
13.62,-12.231113,-10.681528,-8.358583
13.624,-12.90612,-12.231113,-10.681528
13.628,-12.523281,-12.90612,-12.231113
13.632,-10.625291,-12.523281,-12.90612
13.636,-7.048461,-10.625291,-12.523281
13.64,-2.726899,-7.048461,-10.625291
13.644,0.310378,-2.726899,-7.048461
13.648,0.957888,0.310378,-2.726899
13.652,0.278038,0.957888,0.310378
13.656,-0.180765,0.278038,0.957888
13.66,0.088632,-0.180765,0.278038
13.664,0.789464,0.088632,-0.180765
13.668,1.705837,0.789464,0.088632
13.672,2.72356,1.705837,0.789464
13.676,3.478897,2.72356,1.705837
13.68,3.829534,3.478897,2.72356
13.684,3.963944,3.829534,3.478897
13.688,4.282407,3.963944,3.829534
13.692,4.89069,4.282407,3.963944
13.696,5.016797,4.89069,4.282407
13.7,3.838632,5.016797,4.89069
13.704,1.543663,3.838632,5.016797
