0,-10.447465
0.004,-11.64873
0.008,-10.625699
0.012,-7.68012
0.016,-5.476296
0.02,-5.802084
0.024,-7.641282
0.028,-9.079575
0.032,-9.147628
0.036,-8.095759
0.04,-6.798523
0.044,-5.682462
0.048,-4.332841
0.052,-2.083515
0.056,0.793631
0.06,3.300418
0.064,4.95609
0.068,5.540956
0.072,4.601199
0.076,2.191974
0.08,-0.477338
0.084,-2.172346
0.088,-3.207602
0.092,-4.678211
0.096,-6.751313
0.1,-8.097
0.104,-7.007811
0.108,-3.433557
0.112,0.929859
0.116,4.417739
0.12,6.626115
0.124,8.063925
0.128,9.124469
0.132,9.781333
0.136,9.632328
0.14,8.375528
0.144,6.655721
0.148,5.524429
0.152,5.252173
0.156,4.900049
0.16,3.388557
0.164,0.592966
0.168,-2.871025
0.172,-5.721913
0.176,-6.366265
0.18,-4.4412
0.184,-1.799527
0.188,-1.150312
0.192,-2.956918
0.196,-5.073552
0.2,-5.419029
0.204,-3.601447
0.208,-0.43236
0.212,3.294097
0.216,6.848562
0.22,9.515635
0.224,10.989871
0.228,11.033595
0.232,9.468094
0.236,6.58876
0.24,3.365622
0.244,1.134204
0.248,0.594872
0.252,1.353434
0.256,2.121938
0.26,1.615265
0.264,-0.52578
0.268,-3.745254
0.272,-6.90674
0.276,-8.947811
0.28,-9.546391
0.284,-8.992352
0.288,-7.590408
0.292,-5.096181
0.296,-1.52753
0.3,1.85338
0.304,3.825686
0.308,4.640648
0.312,5.128723
0.316,4.980987
0.32,3.609636
0.324,1.771121
0.328,0.279729
0.332,-1.237995
0.336,-3.279276
0.34,-5.158512
0.344,-5.767878
0.348,-5.336726
0.352,-4.90966
0.356,-4.888657
0.36,-4.847996
0.364,-4.167151
0.368,-2.687903
0.372,-0.744073
0.376,0.989652
0.38,2.380502
0.384,4.315159
0.388,7.025374
0.392,9.358485
0.396,10.378086
0.4,10.50004
0.404,10.206945
0.408,9.028646
0.412,6.998278
0.416,4.886145
0.42,2.550429
0.424,-0.72424
0.428,-4.364046
0.432,-6.36105
0.436,-5.822595
0.44,-4.293989
0.444,-3.616896
0.448,-3.546337
0.452,-2.354146
0.456,0.327962
0.46,2.980484
0.464,4.488467
0.468,4.843656
0.472,4.370599
0.476,3.581831
0.48,3.423354
0.484,4.306008
0.488,4.881134
0.492,3.48446
0.496,0.419458
0.5,-2.093605
0.504,-2.389454
0.508,-1.397418
0.512,-1.062404
0.516,-1.93108
0.52,-3.088659
0.524,-3.117272
0.528,-0.796762
0.532,3.956193
0.536,8.92669
0.54,11.309989
0.544,10.711292
0.548,8.788079
0.552,7.171218
0.556,6.719204
0.56,7.80224
0.564,9.808915
0.568,10.914987
0.572,9.96916
0.576,7.74932
0.58,5.915281
0.584,5.347969
0.588,5.813526
0.592,6.80395
0.596,7.722353
0.6,7.845965
0.604,6.925154
0.608,5.666246
0.612,5.291659
0.616,5.948555
0.62,6.498439
0.624,5.988588
0.628,4.315279
0.632,2.214738
0.636,0.785863
0.64,0.583905
0.644,1.081437
0.648,1.334326
0.652,1.318344
0.656,1.440327
0.66,1.566103
0.664,1.413647
0.668,1.089228
0.672,0.865966
0.676,0.267859
0.68,-1.159395
0.684,-2.20519
0.688,-1.284504
0.692,1.240388
0.696,3.638274
0.7,5.358795
0.704,7.120109
0.708,8.716461
0.712,9.251189
0.716,8.538605
0.72,7.260773
0.724,5.972672
0.728,4.283987
0.732,1.677197
0.736,-1.483186
0.74,-4.249854
0.744,-6.002492
0.748,-6.643378
0.752,-6.063363
0.756,-4.597739
0.76,-2.994231
0.764,-1.535299
0.768,-0.114828
0.772,1.18354
0.776,1.699535
0.78,0.669684
0.784,-1.633665
0.788,-4.023966
0.792,-5.422812
0.796,-5.547582
0.8,-4.760846
0.804,-4.040814
0.808,-4.632876
0.812,-6.23144
0.816,-7.025951
0.82,-6.233419
0.824,-5.048447
0.828,-4.856247
0.832,-5.401625
0.836,-5.631895
0.84,-5.060018
0.844,-3.656482
0.848,-1.707728
0.852,0.082694
0.856,0.615373
0.86,-0.400592
0.864,-1.642389
0.868,-1.863843
0.872,-1.472414
0.876,-1.829544
0.88,-3.619441
0.884,-6.534015
0.888,-9.813767
0.892,-12.145862
0.896,-12.566889
0.9,-11.522841
0.904,-10.130525
0.908,-8.82994
0.912,-7.193364
0.916,-5.079112
0.92,-3.103163
0.924,-2.012866
0.928,-2.4503
0.932,-4.593376
0.936,-7.623059
0.94,-9.852718
0.944,-10.021381
0.948,-8.7013
0.952,-7.525825
0.956,-7.415721
0.96,-7.974893
0.964,-8.497108
0.968,-9.108172
0.972,-9.904222
0.976,-10.194016
0.98,-9.210011
0.984,-7.042084
0.988,-4.707142
0.992,-3.186014
0.996,-2.720026
1,-2.498134
1.004,-1.424875
1.008,0.454725
1.012,2.049978
1.016,1.953679
1.02,-0.564573
1.024,-4.509776
1.028,-7.172301
1.032,-5.87815
1.036,-0.94267
1.04,4.214026
1.044,6.681322
1.048,6.604382
1.052,5.775618
1.056,5.213799
1.06,5.460435
1.064,7.256964
1.068,10.378859
1.072,13.581966
1.076,15.871306
1.08,17.174818
1.084,17.708931
1.088,17.330725
1.092,16.285801
1.096,15.249102
1.1,14.299831
1.104,12.961533
1.108,11.166221
1.112,9.739655
1.116,9.454494
1.12,10.501521
1.124,12.636733
1.128,14.89633
1.132,16.012075
1.136,15.423062
1.14,13.986055
1.144,13.296707
1.148,14.194707
1.152,16.709717
1.156,20.171663
1.16,23.197269
1.164,24.737061
1.168,24.855074
1.172,24.184448
1.176,22.856421
1.18,20.872911
1.184,18.592163
1.188,15.771976
1.192,11.856249
1.196,7.129614
1.2,2.72482
1.204,-0.355391
1.208,-1.819622
1.212,-1.769589
1.216,-0.802207
1.22,0.439569
1.224,1.910504
1.228,3.731157
1.232,5.779831
1.236,7.635166
1.24,8.791984
1.244,9.035979
1.248,8.373543
1.252,7.278811
1.256,6.654566
1.26,7.19646
1.264,8.585433
1.268,9.480721
1.272,9.039919
1.276,7.777826
1.28,6.820573
1.284,6.72014
1.288,6.990551
1.292,7.214103
1.296,7.285999
1.3,6.886187
1.304,5.777089
1.308,4.253714
1.312,3.023105
1.316,2.294966
1.32,1.849625
1.324,1.839218
1.328,2.714004
1.332,4.938374
1.336,8.338998
1.34,11.897548
1.344,14.261248
1.348,14.447793
1.352,12.497944
1.356,9.31671
1.36,6.38273
1.364,4.964859
1.368,4.838404
1.372,4.588136
1.376,2.853348
1.38,-0.463139
1.384,-4.078995
1.388,-6.603079
1.392,-7.417315
1.396,-6.567163
1.4,-4.496191
1.404,-2.058043
1.408,0.040374
1.412,2.189896
1.416,4.563794
1.42,6.102745
1.424,6.272052
1.428,6.10818
1.432,6.686363
1.436,7.552638
1.44,7.888655
1.444,7.879735
1.448,7.916443
1.452,8.097499
1.456,8.263015
1.46,8.192739
1.464,7.750869
1.468,6.467362
1.472,3.867558
1.476,0.406014
1.48,-2.184574
1.484,-2.350355
1.488,-0.205031
1.492,3.455835
1.496,8.023649
1.5,12.693447
1.504,16.555046
1.508,18.986519
1.512,19.76898
1.516,18.586761
1.52,15.576179
1.524,12.144947
1.528,9.877423
1.532,8.835308
1.536,7.360625
1.54,4.202134
1.544,0.029476
1.548,-3.718567
1.552,-5.968552
1.556,-6.026387
1.56,-3.584673
1.564,0.363672
1.568,3.485034
1.572,4.333485
1.576,3.498666
1.58,2.218579
1.584,0.818197
1.588,-0.985622
1.592,-2.922168
1.596,-4.551252
1.6,-6.157328
1.604,-8.472835
1.608,-11.818104
1.612,-15.482231
1.616,-18.396671
1.62,-20.116255
1.624,-20.952658
1.628,-21.466549
1.632,-21.794083
1.636,-21.620064
1.64,-20.366541
1.644,-17.908682
1.648,-15.530546
1.652,-14.853025
1.656,-16.195215
1.66,-18.616331
1.664,-20.969791
1.668,-22.164383
1.672,-21.270491
1.676,-18.875439
1.68,-17.061703
1.684,-17.262875
1.688,-19.113401
1.692,-21.108877
1.696,-22.059032
1.7,-21.804281
1.704,-20.950069
1.708,-20.247942
1.712,-19.960932
1.716,-19.914532
1.72,-19.465454
1.724,-17.646038
1.728,-14.220675
1.732,-10.142077
1.736,-7.061472
1.74,-5.904497
1.744,-6.103695
1.748,-6.665975
1.752,-7.080149
1.756,-7.442879
1.76,-8.143511
1.764,-9.516936
1.768,-11.759801
1.772,-14.849386
1.776,-18.561314
1.78,-21.928316
1.784,-23.314264
1.788,-21.901821
1.792,-18.421711
1.796,-14.519838
1.8,-11.563844
1.804,-9.96069
1.808,-9.326111
1.812,-8.388137
1.816,-5.635633
1.82,-0.863772
1.824,4.374005
1.828,8.073007
1.832,9.349494
1.836,8.185729
1.84,5.106507
1.844,1.505759
1.848,-1.273997
1.852,-2.825019
1.856,-3.605629
1.86,-4.350152
1.864,-5.551449
1.868,-7.179583
1.872,-8.51538
1.876,-9.051338
1.88,-8.46685
1.884,-5.880819
1.888,-0.921192
1.892,5.387185
1.896,11.693498
1.9,17.393023
1.904,21.900846
1.908,24.171848
1.912,24.037388
1.916,22.18824
1.92,19.025661
1.924,14.422089
1.928,8.21394
1.932,1.011775
1.936,-6.123178
1.94,-12.494941
1.944,-17.479809
1.948,-20.215208
1.952,-20.417746
1.956,-19.119343
1.96,-17.191086
1.964,-14.269118
1.968,-10.377639
1.972,-6.656837
1.976,-4.305184
1.98,-3.663629
1.984,-4.436598
1.988,-6.072415
1.992,-7.458761
1.996,-7.379621
2,-5.598839
2.004,-3.484899
2.008,-3.11668
2.012,-4.918788
2.016,-7.274052
2.02,-8.321969
2.024,-7.325422
2.028,-4.673107
2.032,-1.224733
2.036,1.777747
2.04,3.224876
2.044,3.053704
2.048,2.290667
2.052,2.15827
2.056,2.942101
2.06,4.08335
2.064,5.082053
2.068,5.558215
2.072,5.209988
2.076,3.81967
2.08,1.666836
2.084,-0.334802
2.088,-1.488504
2.092,-1.668087
2.096,-0.973996
2.1,0.61659
2.104,2.835479
2.108,4.624066
2.112,4.887638
2.116,3.127213
2.12,-0.102671
2.124,-3.23258
2.128,-4.84066
2.132,-4.704298
2.136,-3.904428
2.14,-3.687894
2.144,-4.459838
2.148,-5.808352
2.152,-6.806855
2.156,-6.545614
2.16,-4.784761
2.164,-2.467822
2.168,-1.247946
2.172,-1.84758
2.176,-3.649373
2.18,-5.473394
2.184,-6.152161
2.188,-5.274559
2.192,-3.459244
2.196,-1.888652
2.2,-1.307561
2.204,-1.650415
2.208,-2.453144
2.212,-2.841407
2.216,-2.231899
2.22,-1.063163
2.224,-0.145922
2.228,0.431188
2.232,1.319172
2.236,2.332825
2.24,2.188151
2.244,0.283284
2.248,-2.438046
2.252,-4.54454
2.256,-5.659844
2.26,-6.257133
2.264,-6.725074
2.268,-7.393654
2.272,-8.242344
2.276,-8.490646
2.28,-7.14108
2.284,-4.087455
2.288,-0.369806
2.292,2.882381
2.296,4.933393
2.3,5.874441
2.304,6.561062
2.308,7.035343
2.312,6.280796
2.316,4.119595
2.32,1.913876
2.324,0.394828
2.328,-1.61675
2.332,-4.990119
2.336,-9.07621
2.34,-12.826074
2.344,-15.631417
2.348,-17.14809
2.352,-17.309679
2.356,-17.047325
2.36,-17.682838
2.364,-19.51219
2.368,-21.657766
2.372,-22.787743
2.376,-22.259615
2.38,-20.28306
2.384,-17.309725
2.388,-13.862227
2.392,-10.628591
2.396,-8.351599
2.4,-6.946645
2.404,-5.50849
2.408,-3.649244
2.412,-1.79266
2.416,-0.288077
2.42,1.02895
2.424,1.996121
2.428,1.902979
2.432,0.803382
2.436,-0.445917
2.44,-1.603944
2.444,-3.323806
2.448,-5.821401
2.452,-8.233357
2.456,-10.015917
2.46,-11.466295
2.464,-12.647483
2.468,-13.235231
2.472,-13.102875
2.476,-12.458065
2.48,-11.210108
2.484,-8.878399
2.488,-5.407366
2.492,-1.370604
2.496,2.339754
2.5,5.173571
2.504,7.110561
2.508,8.126963
2.512,8.120601
2.516,6.866103
2.52,4.3739
2.524,1.261279
2.528,-1.586314
2.532,-3.339082
2.536,-3.663677
2.54,-3.013743
2.544,-2.277357
2.548,-2.041094
2.552,-2.223802
2.556,-2.777023
2.56,-3.797152
2.564,-4.966795
2.568,-5.5993
2.572,-5.155528
2.576,-4.047483
2.58,-3.297032
2.584,-2.964442
2.588,-1.746675
2.592,1.612593
2.596,6.692
2.6,12.078848
2.604,16.839321
2.608,20.28409
2.612,21.577963
2.616,20.289825
2.62,16.978474
2.624,12.308253
2.628,6.385804
2.632,0.099552
2.636,-4.554595
2.64,-5.991884
2.644,-4.525328
2.648,-2.426107
2.652,-2.04187
2.656,-3.965121
2.66,-6.627769
2.664,-7.879715
2.668,-7.139552
2.672,-5.7325
2.676,-5.3873
2.68,-6.044477
2.684,-5.835403
2.688,-3.590911
2.692,0.1424
2.696,4.079596
2.7,7.149219
2.704,8.492536
2.708,7.988602
2.712,7.304355
2.716,8.417628
2.72,11.171997
2.724,13.378656
2.728,13.282611
2.732,11.457185
2.736,9.67354
2.74,8.801849
2.744,8.308834
2.748,7.66399
2.752,7.712514
2.756,9.154705
2.76,11.034096
2.764,11.993551
2.768,11.90007
2.772,11.394459
2.776,10.761971
2.78,10.487255
2.784,11.512072
2.788,14.037843
2.792,17.156412
2.796,19.371807
2.8,19.721109
2.804,18.63558
2.808,17.207136
2.812,15.885166
2.816,14.490836
2.82,13.540309
2.824,14.037904
2.828,15.930897
2.832,18.342165
2.836,20.655216
2.84,22.459146
2.844,23.348816
2.848,23.56142
2.852,24.120081
2.856,25.152561
2.86,25.449224
2.864,24.378231
2.868,22.8634
2.872,21.848703
2.876,20.761742
2.88,19.04426
2.884,17.57288
2.888,16.607
2.892,14.558586
2.896,10.478516
2.9,6.112818
2.904,3.778858
2.908,3.575757
2.912,3.772074
2.916,2.746998
2.92,0.581097
2.924,-1.359313
2.928,-2.220557
2.932,-2.013473
2.936,-1.069158
2.94,-0.078127
2.944,0.001014
2.948,-1.116417
2.952,-2.40671
2.956,-2.855574
2.96,-2.380435
2.964,-1.675004
2.968,-1.663099
2.972,-2.022066
2.976,-1.052888
2.98,1.975216
2.984,4.977623
2.988,5.079319
2.992,2.442705
2.996,-0.061184
3,0.135258
3.004,3.430408
3.008,8.140818
3.012,12.027495
3.016,13.326142
3.02,11.18914
3.024,6.208826
3.028,0.763229
3.032,-2.524317
3.036,-3.724682
3.04,-4.89888
3.044,-6.424178
3.048,-6.747583
3.052,-5.276216
3.056,-3.011392
3.06,-0.167926
3.064,4.265012
3.068,10.50433
3.072,17.465141
3.076,23.712782
3.08,28.133108
3.084,30.123699
3.088,29.624109
3.092,27.530077
3.096,25.261551
3.1,23.721952
3.104,22.495842
3.108,20.285572
3.112,16.658367
3.116,12.417385
3.12,8.472135
3.124,5.27854
3.128,3.290305
3.132,2.935182
3.136,3.357301
3.14,3.226628
3.144,2.705139
3.148,2.965906
3.152,4.365933
3.156,5.922403
3.16,6.707081
3.164,7.123899
3.168,7.998825
3.172,9.294524
3.176,10.374357
3.18,11.400928
3.184,12.654374
3.188,13.139925
3.192,11.993084
3.196,9.917966
3.2,8.230352
3.204,7.56335
3.208,7.649401
3.212,7.983917
3.216,8.132586
3.22,7.988423
3.224,7.534597
3.228,6.582587
3.232,5.339283
3.236,4.411877
3.24,4.270854
3.244,4.830199
3.248,5.42792
3.252,5.718552
3.256,6.116741
3.26,7.172513
3.264,8.533509
3.268,8.94666
3.272,7.815894
3.276,5.579149
3.28,2.600231
3.284,-1.300796
3.288,-5.853683
3.292,-9.823064
3.296,-12.529543
3.3,-14.300871
3.304,-15.085124
3.308,-14.445085
3.312,-12.680564
3.316,-10.93597
3.32,-9.767857
3.324,-8.734122
3.328,-7.441607
3.332,-5.862196
3.336,-4.480601
3.34,-4.23095
3.344,-5.602999
3.348,-8.020191
3.352,-10.211507
3.356,-11.374586
3.36,-11.265111
3.364,-10.044028
3.368,-8.640352
3.372,-7.894309
3.376,-7.875456
3.38,-8.321979
3.384,-9.07831
3.388,-9.811244
3.392,-9.959023
3.396,-9.990321
3.4,-11.138959
3.404,-13.833031
3.408,-17.414347
3.412,-20.863749
3.416,-23.534302
3.42,-25.030874
3.424,-24.936666
3.428,-23.182577
3.432,-20.480101
3.436,-18.279501
3.44,-17.128874
3.444,-15.988328
3.448,-14.249725
3.452,-12.63629
3.456,-11.514629
3.46,-10.070971
3.464,-8.099638
3.468,-6.745956
3.472,-6.613169
3.476,-7.312459
3.48,-8.355035
3.484,-9.273347
3.488,-9.761468
3.492,-9.844643
3.496,-9.696603
3.5,-9.256199
3.504,-8.809984
3.508,-9.167946
3.512,-9.807312
3.516,-8.757007
3.52,-5.298955
3.524,-1.052305
3.528,2.139513
3.532,4.008272
3.536,4.694067
3.54,4.19859
3.544,3.097467
3.548,2.32627
3.552,2.478264
3.556,3.202254
3.56,3.781288
3.564,4.176724
3.568,4.67272
3.572,5.044447
3.576,4.55984
3.58,3.406609
3.584,3.009255
3.588,4.153555
3.592,5.91496
3.596,6.901735
3.6,7.074428
3.604,7.211677
3.608,7.272429
3.612,7.167122
3.616,7.531531
3.62,8.507765
3.624,8.755967
3.628,6.964841
3.632,3.813681
3.636,0.815783
3.64,-1.591001
3.644,-3.886092
3.648,-6.375936
3.652,-8.729977
3.656,-10.625826
3.66,-11.957759
3.664,-12.364756
3.668,-11.251727
3.672,-8.968595
3.676,-7.685305
3.68,-9.145327
3.684,-11.963346
3.688,-13.051879
3.692,-11.4593
3.696,-9.250343
3.7,-7.965015
3.704,-6.750551
3.708,-4.890545
3.712,-3.134285
3.716,-1.923379
3.72,-0.69648
3.724,0.474886
3.728,0.596385
3.732,-0.429162
3.736,-1.38294
3.74,-0.966542
3.744,0.740908
3.748,2.005609
3.752,1.483821
3.756,-0.325835
3.76,-2.421606
3.764,-5.051186
3.768,-8.824377
3.772,-12.575229
3.776,-14.447059
3.78,-14.329325
3.784,-13.661268
3.788,-13.380013
3.792,-13.147211
3.796,-12.692197
3.8,-12.252261
3.804,-11.643811
3.808,-10.360651
3.812,-8.644645
3.816,-7.922343
3.82,-9.105005
3.824,-11.253802
3.828,-12.765471
3.832,-13.068253
3.836,-12.836636
3.84,-12.788329
3.844,-13.214579
3.848,-14.367725
3.852,-15.875867
3.856,-16.763868
3.86,-16.435303
3.864,-15.080978
3.868,-13.050583
3.872,-10.4444
3.876,-7.591456
3.88,-4.956143
3.884,-2.902488
3.888,-1.621551
3.892,-0.566108
3.896,0.863971
3.9,2.279395
3.904,3.038598
3.908,3.167833
3.912,2.572284
3.916,0.263446
3.92,-3.816649
3.924,-7.601408
3.928,-9.152681
3.932,-8.629888
3.936,-7.59942
3.94,-7.08211
3.944,-7.097391
3.948,-7.491896
3.952,-7.751643
3.956,-6.927067
3.96,-4.253256
3.964,-0.123572
3.968,3.776977
3.972,6.048839
3.976,6.695611
3.98,6.636538
3.984,6.102663
3.988,4.096761
3.992,0.312544
3.996,-3.984021
4,-7.364424
4.004,-9.799454
4.008,-12.122911
4.012,-14.226291
4.016,-15.117535
4.02,-14.312756
4.024,-12.542963
4.028,-10.540677
4.032,-7.600279
4.036,-3.313119
4.04,0.847547
4.044,3.175471
4.048,3.48496
4.052,2.726142
4.056,1.914241
4.06,1.835667
4.064,2.274517
4.068,2.101304
4.072,0.828787
4.076,-1.395003
4.08,-4.153139
4.084,-6.264599
4.088,-6.666409
4.092,-6.109313
4.096,-6.795803
4.1,-9.384387
4.104,-12.114667
4.108,-13.354813
4.112,-13.172393
4.116,-12.444156
4.12,-11.188012
4.124,-8.521494
4.128,-4.047883
4.132,1.420287
4.136,5.886807
4.14,7.64602
4.144,6.958696
4.148,5.463546
4.152,4.262994
4.156,3.049585
4.16,1.411913
4.164,-0.362959
4.168,-1.939535
4.172,-2.645597
4.176,-1.70799
4.18,0.229345
4.184,0.976677
4.188,-0.69283
4.192,-3.130131
4.196,-3.463508
4.2,-0.293032
4.204,5.113268
4.208,9.840283
4.212,12.150892
4.216,12.36212
4.22,11.383249
4.224,9.829677
4.228,8.252562
4.232,7.021808
4.236,5.866682
4.24,4.710954
4.244,4.191086
4.248,4.440939
4.252,4.55197
4.256,3.314091
4.26,0.60546
4.264,-2.295306
4.268,-4.00471
4.272,-4.043362
4.276,-3.144702
4.28,-2.13527
4.284,-0.725547
4.288,1.702427
4.292,4.51717
4.296,5.929078
4.3,5.777792
4.304,6.184595
4.308,8.25201
4.312,10.715668
4.316,12.20212
4.32,12.933413
4.324,13.265965
4.328,12.544022
4.332,10.704338
4.336,8.939193
4.34,8.285402
4.344,8.473388
4.348,8.802923
4.352,9.654377
4.356,11.791615
4.36,15.051025
4.364,18.245672
4.368,19.897753
4.372,19.533178
4.376,17.967163
4.38,16.11507
4.384,14.098495
4.388,11.906244
4.392,10.444566
4.396,10.483805
4.4,11.383495
4.404,11.776555
4.408,11.182918
4.412,10.496402
4.416,10.388769
4.42,10.654212
4.424,10.993618
4.428,11.154187
4.432,10.988142
4.436,10.595851
4.44,10.277215
4.444,10.399686
4.448,11.591007
4.452,14.346823
4.456,17.606653
4.46,19.335859
4.464,18.679182
4.468,16.519083
4.472,14.089848
4.476,11.549698
4.48,8.525146
4.484,5.429674
4.488,3.156184
4.492,1.972009
4.496,1.256961
4.5,0.424408
4.504,-0.622898
4.508,-1.640928
4.512,-1.76204
4.516,0.094204
4.52,4.629542
4.524,11.448006
4.528,18.39739
4.532,22.793797
4.536,23.360834
4.54,20.894299
4.544,16.904322
4.548,12.108421
4.552,6.438354
4.556,-0.385473
4.56,-7.499701
4.564,-12.772558
4.568,-14.804693
4.572,-14.189868
4.576,-12.422825
4.58,-9.896789
4.584,-6.342782
4.588,-2.537483
4.592,0.31386
4.596,2.277952
4.6,4.713622
4.604,8.333841
4.608,12.532845
4.612,16.751715
4.616,20.736515
4.62,23.74786
4.624,24.663692
4.628,22.790285
4.632,18.372463
4.636,12.11853
4.64,4.592862
4.644,-3.902386
4.648,-12.42819
4.652,-19.243221
4.656,-23.908274
4.66,-27.826227
4.664,-32.005684
4.668,-35.87009
4.672,-38.014111
4.676,-37.270393
4.68,-32.892933
4.684,-25.123446
4.688,-15.655366
4.692,-6.397263
4.696,1.533186
4.7,7.628234
4.704,11.410204
4.708,12.557249
4.712,11.633235
4.716,9.295737
4.72,5.586536
4.724,0.734135
4.728,-4.091639
4.732,-7.483537
4.736,-9.494626
4.74,-11.075611
4.744,-12.531111
4.748,-13.546134
4.752,-13.499312
4.756,-11.819734
4.76,-8.366332
4.764,-3.813324
4.768,0.811786
4.772,5.157462
4.776,9.039761
4.78,11.835686
4.784,12.944449
4.788,12.352736
4.792,10.569397
4.796,8.057468
4.8,5.319973
4.804,2.90162
4.808,0.875375
4.812,-0.947099
4.816,-2.738393
4.82,-4.33787
4.824,-5.561773
4.828,-6.75461
4.832,-8.325318
4.836,-10.42856
4.84,-12.919116
4.844,-15.234651
4.848,-16.680641
4.852,-16.927477
4.856,-16.350613
4.86,-15.141212
4.864,-12.875064
4.868,-9.460677
4.872,-5.630259
4.876,-2.45274
4.88,-0.338044
4.884,1.026927
4.888,1.839185
4.892,2.153842
4.896,2.309955
4.9,3.079514
4.904,4.797553
4.908,6.607235
4.912,7.325007
4.916,6.438722
4.92,4.545522
4.924,2.949408
4.928,2.391701
4.932,2.433556
4.936,2.03473
4.94,0.971365
4.944,-0.117358
4.948,-0.622783
4.952,-0.040171
4.956,1.580077
4.96,3.422549
4.964,4.750138
4.968,5.835944
4.972,7.328638
4.976,8.57359
4.98,8.361371
4.984,6.764848
4.988,4.837525
4.992,3.496861
4.996,3.281695
5,4.349941
5.004,5.422845
5.008,4.36156
5.012,0.968791
5.016,-2.914935
5.02,-6.008298
5.024,-8.513873
5.028,-10.764389
5.032,-12.459546
5.036,-13.566721
5.04,-14.383016
5.044,-14.82722
5.048,-14.43579
5.052,-12.760953
5.056,-10.05262
5.06,-6.818107
5.064,-3.032255
5.068,1.21746
5.072,5.277077
5.076,8.588734
5.08,11.340332
5.084,13.736958
5.088,15.236431
5.092,15.371184
5.096,14.214025
5.1,12.316346
5.104,10.282252
5.108,8.232064
5.112,6.247327
5.116,4.472481
5.12,2.885968
5.124,1.291239
5.128,-0.476576
5.132,-2.265544
5.136,-3.668058
5.14,-3.823215
5.144,-2.12484
5.148,0.534707
5.152,2.521696
5.156,3.289759
5.16,3.927024
5.164,5.418128
5.168,7.182129
5.172,8.166832
5.176,7.815452
5.18,5.797568
5.184,2.098692
5.188,-1.863021
5.192,-3.591463
5.196,-2.576806
5.2,-0.999915
5.204,-0.861002
5.208,-2.187048
5.212,-4.102472
5.216,-6.161804
5.22,-7.818062
5.224,-8.2754
5.228,-7.172384
5.232,-4.648333
5.236,-1.320283
5.24,2.054616
5.244,4.943757
5.248,7.067946
5.252,8.524904
5.256,9.559958
5.26,10.347236
5.264,10.74907
5.268,10.50146
5.272,9.703572
5.276,8.64568
5.28,7.798026
5.284,7.514501
5.288,7.287271
5.292,6.305863
5.296,4.564281
5.3,3.048344
5.304,2.408731
5.308,2.277079
5.312,2.238968
5.316,2.166739
5.32,2.154775
5.324,2.747765
5.328,4.641541
5.332,7.786278
5.336,10.684337
5.34,11.600751
5.344,10.107748
5.348,6.82971
5.352,2.576817
5.356,-1.936842
5.36,-5.40504
5.364,-6.375442
5.368,-4.790905
5.372,-1.783571
5.376,1.395913
5.38,3.653492
5.384,3.968306
5.388,2.260141
5.392,-0.220229
5.396,-2.464909
5.4,-4.023765
5.404,-4.269145
5.408,-3.131423
5.412,-1.781559
5.416,-1.432534
5.42,-1.685038
5.424,-1.079073
5.428,1.147491
5.432,4.390095
5.436,7.323424
5.44,9.191479
5.444,9.86636
5.448,9.213643
5.452,7.721067
5.456,6.551451
5.46,6.096383
5.464,5.220253
5.468,2.841637
5.472,-0.214091
5.476,-2.075618
5.48,-1.894164
5.484,-0.657131
5.488,-0.084366
5.492,-0.955237
5.496,-3.287144
5.5,-6.731717
5.504,-10.381432
5.508,-12.764235
5.512,-12.500116
5.516,-9.803256
5.52,-6.596984
5.524,-4.829506
5.528,-4.92374
5.532,-5.880375
5.536,-6.745396
5.54,-6.846114
5.544,-5.594372
5.548,-3.36641
5.552,-1.821656
5.556,-2.480084
5.56,-4.796158
5.564,-6.78609
5.568,-7.406011
5.572,-7.120122
5.576,-6.808216
5.58,-6.691733
5.584,-6.581245
5.588,-6.612103
5.592,-6.796636
5.596,-6.827947
5.6,-6.499581
5.604,-5.871037
5.608,-4.991421
5.612,-3.70357
5.616,-2.375185
5.62,-1.827785
5.624,-2.260626
5.628,-2.979191
5.632,-2.975801
5.636,-1.867701
5.64,0.117101
5.644,2.558596
5.648,4.737377
5.652,5.730809
5.656,4.683449
5.66,1.573824
5.664,-2.839493
5.668,-7.726089
5.672,-11.582071
5.676,-12.590159
5.68,-10.755405
5.684,-8.482095
5.688,-8.023575
5.692,-9.356784
5.696,-11.574499
5.7,-14.086822
5.704,-16.182547
5.708,-17.317293
5.712,-17.817799
5.716,-18.230822
5.72,-18.016872
5.724,-16.327372
5.728,-13.556646
5.732,-10.830432
5.736,-8.949306
5.74,-7.749937
5.744,-6.188333
5.748,-3.38715
5.752,0.203205
5.756,2.770682
5.76,2.827596
5.764,0.647164
5.768,-2.173086
5.772,-4.278306
5.776,-5.816772
5.78,-7.739044
5.784,-10.387829
5.788,-13.149878
5.792,-14.772301
5.796,-14.316224
5.8,-11.713371
5.804,-7.921129
5.808,-4.500056
5.812,-2.429046
5.816,-1.525307
5.82,-0.680808
5.824,0.900989
5.828,2.589002
5.832,3.190757
5.836,2.450853
5.84,1.221022
5.844,-0.293989
5.848,-3.131857
5.852,-7.276067
5.856,-10.731237
5.86,-11.894195
5.864,-11.396641
5.868,-10.407157
5.872,-8.906837
5.876,-7.163741
5.88,-6.203553
5.884,-5.76827
5.888,-4.357877
5.892,-1.822016
5.896,-0.060912
5.9,-0.01998
5.904,-0.488829
5.908,-0.519624
5.912,-0.326863
5.916,0.016593
5.92,0.894205
5.924,2.126702
5.928,3.164295
5.932,3.899978
5.936,3.964981
5.94,2.815826
5.944,0.68591
5.948,-1.527491
5.952,-2.744219
5.956,-2.288067
5.96,-0.336795
5.964,2.014225
5.968,3.718109
5.972,4.767315
5.976,5.410222
5.98,5.339766
5.984,4.068246
5.988,1.651109
5.992,-1.206659
5.996,-4.139154
6,-6.873845
6.004,-8.411191
6.008,-7.841933
6.012,-5.579257
6.016,-3.075957
6.02,-1.389958
6.024,-0.697682
6.028,-0.479677
6.032,0.193596
6.036,1.519724
6.04,2.939534
6.044,3.92414
6.048,3.764525
6.052,1.80286
6.056,-1.360557
6.06,-3.98181
6.064,-5.628247
6.068,-7.597905
6.072,-10.045534
6.076,-11.332482
6.08,-10.498552
6.084,-8.715118
6.088,-7.815112
6.092,-8.251397
6.096,-9.258811
6.1,-9.389073
6.104,-7.310577
6.108,-3.103213
6.112,1.265845
6.116,3.169277
6.12,1.862782
6.124,-0.667631
6.128,-1.801641
6.132,-0.964555
6.136,-0.261809
6.14,-1.873492
6.144,-6.060705
6.148,-11.504791
6.152,-16.05159
6.156,-17.96735
6.16,-17.074352
6.164,-14.586321
6.168,-11.881976
6.172,-9.443501
6.176,-7.154408
6.18,-4.704152
6.184,-2.151318
6.188,0.017832
6.192,1.73969
6.196,3.245497
6.2,4.42221
6.204,4.650062
6.208,3.411241
6.212,1.283643
6.216,-0.627238
6.22,-1.711855
6.224,-1.976851
6.228,-1.491603
6.232,-0.398488
6.236,0.537262
6.24,0.688132
6.244,0.398031
6.248,0.224189
6.252,0.167686
6.256,-0.303848
6.26,-1.252057
6.264,-1.956053
6.268,-1.577263
6.272,0.138695
6.276,2.39662
6.28,4.319687
6.284,5.851505
6.288,6.959702
6.292,7.122888
6.296,6.12258
6.3,4.932548
6.304,4.270483
6.308,3.287851
6.312,1.271877
6.316,-1.164421
6.32,-3.01064
6.324,-3.961084
6.328,-4.108823
6.332,-3.446553
6.336,-2.617944
6.34,-2.567676
6.344,-3.501556
6.348,-5.049167
6.352,-6.649782
6.356,-7.537574
6.36,-6.548349
6.364,-3.21628
6.368,1.351655
6.372,5.562033
6.376,8.341858
6.38,9.378195
6.384,8.977739
6.388,7.764591
6.392,6.448788
6.396,5.291739
6.4,4.01436
6.404,1.969002
6.408,-1.20347
6.412,-4.617794
6.416,-7.005662
6.42,-8.121696
6.424,-8.439416
6.428,-7.745969
6.432,-5.29338
6.436,-1.569827
6.44,2.054266
6.444,4.92627
6.448,6.921062
6.452,7.621963
6.456,6.693451
6.46,4.940322
6.464,3.761564
6.468,3.967086
6.472,5.799931
6.476,8.827468
6.48,11.818323
6.484,13.441037
6.488,13.559399
6.492,13.369769
6.496,13.546569
6.5,13.55408
6.504,12.685001
6.508,10.857844
6.512,8.501586
6.516,6.104941
6.52,4.387411
6.524,3.61616
6.528,2.720988
6.532,0.231437
6.536,-4.276464
6.54,-9.451056
6.544,-13.111733
6.548,-13.977069
6.552,-12.276022
6.556,-8.828209
6.56,-3.853187
6.564,2.333781
6.568,8.348442
6.572,12.605045
6.576,14.51129
6.58,14.668757
6.584,14.017283
6.588,13.137538
6.592,12.03047
6.596,9.880372
6.6,6.089031
6.604,1.361726
6.608,-2.857892
6.612,-5.528246
6.616,-6.416985
6.62,-6.032302
6.624,-5.767145
6.628,-6.774675
6.632,-8.316347
6.636,-8.719823
6.64,-7.133533
6.644,-3.862216
6.648,0.306721
6.652,4.687457
6.656,8.619905
6.66,11.798021
6.664,14.463057
6.668,17.02244
6.672,19.845757
6.676,22.90078
6.68,25.56575
6.684,26.524397
6.688,24.498924
6.692,19.759792
6.696,13.973222
6.7,9.106662
6.704,6.403712
6.708,5.770179
6.712,6.16584
6.716,6.595634
6.72,7.093332
6.724,8.092347
6.728,9.647657
6.732,11.863684
6.736,14.46352
6.74,16.634209
6.744,17.797894
6.748,18.236824
6.752,18.6364
6.756,19.198179
6.76,19.764524
6.764,19.867178
6.768,19.125858
6.772,17.970007
6.776,16.866051
6.78,15.757725
6.784,14.543777
6.788,13.63984
6.792,13.33387
6.796,12.74788
6.8,10.927397
6.804,8.581347
6.808,7.570381
6.812,8.532722
6.816,9.862525
6.82,10.010497
6.824,9.14306
6.828,8.085381
6.832,7.191912
6.836,6.633522
6.84,6.914473
6.844,7.953322
6.848,8.642808
6.852,8.299057
6.856,7.412919
6.86,7.019374
6.864,7.289413
6.868,7.206842
6.872,5.975608
6.876,4.178757
6.88,3.314071
6.884,3.943322
6.888,5.017817
6.892,5.095519
6.896,3.470884
6.9,0.908076
6.904,-1.238557
6.908,-2.307274
6.912,-1.968516
6.916,-0.04555
6.92,2.794615
6.924,5.084166
6.928,6.123614
6.932,6.685269
6.936,7.310023
6.94,7.55761
6.944,6.997253
6.948,6.108522
6.952,5.864046
6.956,6.267081
6.96,6.813535
6.964,7.860338
6.968,9.965077
6.972,12.462329
6.976,13.790364
6.98,13.381054
6.984,11.700106
6.988,9.125469
6.992,6.044208
6.996,2.894747
7,-0.032945
7.004,-2.544216
7.008,-4.255023
7.012,-4.640924
7.016,-3.723564
7.02,-1.717883
7.024,1.15006
7.028,4.187246
7.032,6.548353
7.036,7.715052
7.04,7.312259
7.044,5.043549
7.048,1.704796
7.052,-0.685867
7.056,-1.248998
7.06,-1.05758
7.064,-1.203255
7.068,-1.461238
7.072,-1.32629
7.076,-1.296914
7.08,-1.846613
7.084,-2.445044
7.088,-2.635252
7.092,-2.879275
7.096,-3.712696
7.1,-4.290143
7.104,-3.262393
7.108,-0.85853
7.112,1.420926
7.116,3.189437
7.12,5.834292
7.124,9.336588
7.128,10.868778
7.132,8.772197
7.136,5.159802
7.14,2.772445
7.144,1.477653
7.148,-0.270552
7.152,-2.763582
7.156,-5.694039
7.16,-8.900069
7.164,-11.545789
7.168,-12.172627
7.172,-10.5161
7.176,-8.482369
7.18,-7.942014
7.184,-8.730225
7.188,-9.802112
7.192,-11.098941
7.196,-13.175403
7.2,-15.441154
7.204,-16.552425
7.208,-15.899295
7.212,-13.689552
7.216,-10.831735
7.22,-8.652273
7.224,-8.05456
7.228,-8.721299
7.232,-9.445246
7.236,-9.166022
7.24,-7.576563
7.244,-5.769262
7.248,-5.65395
7.252,-7.521605
7.256,-9.865943
7.26,-11.754772
7.264,-13.533087
7.268,-14.635207
7.272,-13.269017
7.276,-9.391736
7.28,-5.159801
7.284,-2.132725
7.288,-0.142066
7.292,1.203723
7.296,1.480099
7.3,0.771464
7.304,0.008461
7.308,-0.492707
7.312,-1.472405
7.316,-3.761671
7.32,-6.807373
7.324,-8.835316
7.328,-8.774961
7.332,-7.130107
7.336,-4.797328
7.34,-1.813406
7.344,1.473019
7.348,3.858583
7.352,4.906594
7.356,5.255391
7.36,5.442828
7.364,5.419372
7.368,5.121366
7.372,4.707365
7.376,3.899571
7.38,2.304612
7.384,-0.052443
7.388,-2.876203
7.392,-5.731969
7.396,-8.057827
7.4,-9.409178
7.404,-10.18609
7.408,-11.212184
7.412,-12.314974
7.416,-12.712964
7.42,-12.069218
7.424,-10.474627
7.428,-7.575359
7.432,-2.963704
7.436,2.226058
7.44,6.059385
7.444,7.662942
7.448,7.342006
7.452,5.80755
7.456,3.98408
7.46,3.127656
7.464,3.69897
7.468,4.714957
7.472,4.806114
7.476,3.508322
7.48,1.879938
7.484,1.443239
7.488,2.413509
7.492,3.42947
7.496,2.891234
7.5,0.994217
7.504,-0.364997
7.508,0.416298
7.512,3.513923
7.516,7.698137
7.52,10.949889
7.524,11.395606
7.528,8.842787
7.532,5.283614
7.536,2.60272
7.54,0.857625
7.544,-1.110435
7.548,-3.982086
7.552,-7.370786
7.556,-10.790025
7.56,-14.127682
7.564,-17.422434
7.568,-20.390862
7.572,-22.035181
7.576,-21.210598
7.58,-17.492346
7.584,-11.922241
7.588,-6.771928
7.592,-3.859648
7.596,-3.156891
7.6,-2.823427
7.604,-0.88428
7.608,3.080634
7.612,7.881775
7.616,11.662267
7.62,13.402861
7.624,13.260203
7.628,11.685459
7.632,9.218086
7.636,6.345275
7.64,3.443426
7.644,1.263019
7.648,1.254714
7.652,4.231334
7.656,8.745184
7.66,12.359103
7.664,13.479875
7.668,11.671152
7.672,7.803559
7.676,3.461748
7.68,-0.379399
7.684,-3.854151
7.688,-7.293995
7.692,-10.549962
7.696,-13.234649
7.7,-14.889204
7.704,-15.394153
7.708,-15.151575
7.712,-14.570837
7.716,-14.161384
7.72,-14.1797
7.724,-14.268613
7.728,-14.380935
7.732,-15.239159
7.736,-17.102278
7.74,-18.797806
7.744,-18.950365
7.748,-17.353191
7.752,-14.815597
7.756,-12.56898
7.76,-11.004441
7.764,-9.662958
7.768,-8.567883
7.772,-8.157512
7.776,-8.48759
7.78,-9.420034
7.784,-11.577071
7.788,-15.425538
7.792,-19.66958
7.796,-22.416826
7.8,-22.865913
7.804,-21.150253
7.808,-17.67337
7.812,-13.621549
7.816,-11.163382
7.82,-11.234982
7.824,-12.551538
7.828,-13.539218
7.832,-13.867555
7.836,-14.009672
7.84,-14.009172
7.844,-13.593458
7.848,-12.692869
7.852,-11.015778
7.856,-8.345059
7.86,-5.337347
7.864,-3.560294
7.868,-3.957959
7.872,-5.489844
7.876,-6.532483
7.88,-6.488631
7.884,-5.513147
7.888,-3.385269
7.892,0.176025
7.896,3.998705
7.9,6.266477
7.904,6.328436
7.908,4.881209
7.912,3.047498
7.916,1.724241
7.92,1.640978
7.924,2.664284
7.928,3.502163
7.932,2.797364
7.936,0.209141
7.94,-3.228176
7.944,-6.299651
7.948,-8.796735
7.952,-11.082076
7.956,-13.257191
7.96,-15.148849
7.964,-16.971334
7.968,-18.888971
7.972,-20.05719
7.976,-19.119265
7.98,-15.454165
7.984,-10.053161
7.988,-4.624125
7.992,-0.231107
7.996,2.370476
8,2.640076
8.004,1.139023
8.008,-0.593201
8.012,-1.703103
8.016,-2.710947
8.02,-3.82628
8.024,-4.414485
8.028,-4.472616
8.032,-4.892343
8.036,-6.114916
8.04,-7.419445
8.044,-8.058616
8.048,-7.941665
8.052,-6.974605
8.056,-5.059981
8.06,-2.536487
8.064,-0.465558
8.068,-0.117715
8.072,-1.987643
8.076,-5.750548
8.08,-10.212478
8.084,-13.663854
8.088,-14.827071
8.092,-13.577057
8.096,-11.089273
8.1,-8.786976
8.104,-7.013547
8.108,-5.030704
8.112,-2.180742
8.116,1.31388
8.12,5.011704
8.124,8.220679
8.128,10.112497
8.132,10.903924
8.136,11.289278
8.14,11.141143
8.144,9.815636
8.148,7.239603
8.152,3.996395
8.156,0.714571
8.16,-1.605816
8.164,-2.28137
8.168,-1.700383
8.172,-0.371273
8.176,1.503261
8.18,3.678873
8.184,5.538333
8.188,6.37491
8.192,5.893743
8.196,4.426704
8.2,3.063728
8.204,2.732372
8.208,3.49641
8.212,4.812382
8.216,5.635856
8.22,5.314318
8.224,4.453168
8.228,4.258151
8.232,5.216122
8.236,6.607108
8.24,7.470222
8.244,7.362903
8.248,6.601183
8.252,6.253885
8.256,7.036477
8.26,8.442523
8.264,9.346871
8.268,9.329744
8.272,8.980774
8.276,8.869156
8.28,9.505994
8.284,11.208695
8.288,13.012988
8.292,13.123981
8.296,10.949327
8.3,8.025414
8.304,6.20799
8.308,5.989842
8.312,6.78617
8.316,7.570356
8.32,7.821932
8.324,7.910376
8.328,8.72644
8.332,11.007262
8.336,14.317512
8.34,17.241455
8.344,18.799406
8.348,19.298559
8.352,19.26585
8.356,18.247265
8.36,16.12162
8.364,13.718458
8.368,11.608062
8.372,9.736675
8.376,7.876677
8.38,5.844613
8.384,3.3555
8.388,0.557505
8.392,-1.353515
8.396,-1.055334
8.4,1.86966
8.404,6.457717
8.408,11.210401
8.412,15.356156
8.416,18.83028
8.42,21.608545
8.424,23.019352
8.428,22.33321
8.432,20.191236
8.436,17.931747
8.44,16.115515
8.444,14.554688
8.448,13.171743
8.452,11.740546
8.456,9.736949
8.46,7.688965
8.464,6.857427
8.468,7.285829
8.472,7.885545
8.476,8.219078
8.48,9.212745
8.484,11.538293
8.488,14.328647
8.492,16.270428
8.496,16.962622
8.5,16.821184
8.504,15.949403
8.508,14.058758
8.512,11.478874
8.516,8.826702
8.52,6.056204
8.524,2.692996
8.528,-0.968467
8.532,-3.732703
8.536,-5.027092
8.54,-5.236638
8.544,-4.779052
8.548,-3.836261
8.552,-2.539943
8.556,-1.208185
8.56,0.002911
8.564,1.209627
8.568,2.630119
8.572,4.173844
8.576,4.973411
8.58,4.333548
8.584,2.6204
8.588,0.610997
8.592,-1.233001
8.596,-3.169585
8.6,-6.017064
8.604,-10.410629
8.608,-15.640911
8.612,-20.09338
8.616,-23.210135
8.62,-25.199883
8.624,-26.044613
8.628,-26.069685
8.632,-26.095976
8.636,-26.34206
8.64,-25.545082
8.644,-22.321922
8.648,-16.720852
8.652,-9.73534
8.656,-2.4265
8.66,4.410176
8.664,10.063482
8.668,14.35279
8.672,17.76091
8.676,20.36607
8.68,21.732559
8.684,21.312181
8.688,18.636078
8.692,14.012799
8.696,8.699042
8.7,4.200199
8.704,1.032161
8.708,-1.395666
8.712,-3.786381
8.716,-6.489274
8.72,-9.248328
8.724,-11.415007
8.728,-12.469885
8.732,-12.121655
8.736,-10.212904
8.74,-6.453747
8.744,-0.913467
8.748,5.505116
8.752,11.252764
8.756,14.399644
8.76,14.067549
8.764,11.555603
8.768,9.127944
8.772,7.926525
8.776,7.468282
8.78,6.939028
8.784,5.838566
8.788,4.279522
8.792,3.558533
8.796,4.844874
8.8,7.283172
8.804,8.414719
8.808,7.180671
8.812,5.357178
8.816,5.136429
8.82,7.08393
8.824,10.443421
8.828,13.873315
8.832,15.780588
8.836,15.092071
8.84,12.757934
8.844,10.749557
8.848,9.227904
8.852,6.531153
8.856,1.873578
8.86,-2.990913
8.864,-5.815882
8.868,-6.193834
8.872,-5.137596
8.876,-3.877487
8.88,-2.907637
8.884,-1.852995
8.888,0.004931
8.892,2.960156
8.896,6.292996
8.9,9.152993
8.904,11.047098
8.908,11.697104
8.912,11.33956
8.916,10.558542
8.92,9.496195
8.924,7.676672
8.928,5.445358
8.932,4.205991
8.936,4.360047
8.94,5.116912
8.944,5.941694
8.948,6.549476
8.952,6.53055
8.956,5.946074
8.96,5.524761
8.964,5.461577
8.968,5.457093
8.972,5.832199
8.976,6.77511
8.98,7.223983
8.984,5.851312
8.988,2.935362
8.992,0.198978
8.996,-1.335457
9,-1.829144
9.004,-1.99271
9.008,-2.666759
9.012,-4.18296
9.016,-6.177604
9.02,-8.050087
9.024,-9.571364
9.028,-10.748549
9.032,-11.433888
9.036,-11.453054
9.04,-10.30233
9.044,-7.680762
9.048,-4.498265
9.052,-2.465975
9.056,-2.521727
9.06,-3.953627
9.064,-5.616337
9.068,-7.048442
9.072,-7.967702
9.076,-8.536582
9.08,-9.653433
9.084,-11.611633
9.088,-13.011535
9.092,-12.913402
9.096,-12.730547
9.1,-13.470381
9.104,-13.870882
9.108,-13.135481
9.112,-12.26928
9.116,-11.99646
9.12,-11.503697
9.124,-10.105381
9.128,-8.298079
9.132,-6.840653
9.136,-6.081263
9.14,-5.79599
9.144,-5.891386
9.148,-6.771981
9.152,-8.158502
9.156,-9.098424
9.16,-9.464226
9.164,-10.312087
9.168,-12.027575
9.172,-13.343549
9.176,-13.296583
9.18,-12.312757
9.184,-11.413611
9.188,-11.145192
9.192,-11.340823
9.196,-11.754128
9.2,-12.088321
9.204,-11.950739
9.208,-11.129657
9.212,-9.812614
9.216,-8.679749
9.22,-7.999596
9.224,-7.313332
9.228,-6.155053
9.232,-4.80565
9.236,-4.049889
9.24,-3.871597
9.244,-3.339866
9.248,-1.808275
9.252,0.590869
9.256,3.112906
9.26,4.97235
9.264,5.483225
9.268,4.269476
9.272,2.028351
9.276,0.48217
9.28,1.276325
9.284,4.102804
9.288,6.649579
9.292,7.342749
9.296,6.732857
9.3,5.960508
9.304,4.841114
9.308,2.435944
9.312,-1.109156
9.316,-4.755943
9.32,-7.457821
9.324,-8.594707
9.328,-7.988781
9.332,-5.913266
9.336,-3.115004
9.34,-0.195587
9.344,2.536421
9.348,4.89782
9.352,6.714888
9.356,7.150703
9.36,5.425111
9.364,2.285568
9.368,-0.23183
9.372,-0.681206
9.376,0.685222
9.38,2.782143
9.384,4.583204
9.388,5.57708
9.392,5.72484
9.396,4.459226
9.4,1.012081
9.404,-4.224112
9.408,-9.451604
9.412,-12.874757
9.416,-14.279752
9.42,-14.521075
9.424,-14.191901
9.428,-13.369452
9.432,-12.154649
9.436,-10.984365
9.44,-9.551422
9.444,-6.878921
9.448,-2.936142
9.452,0.947828
9.456,3.630708
9.46,5.250956
9.464,5.820286
9.468,4.451916
9.472,1.042262
9.476,-3.179874
9.48,-6.889467
9.484,-9.624695
9.488,-11.199749
9.492,-11.530889
9.496,-11.210768
9.5,-10.687316
9.504,-9.654103
9.508,-7.78384
9.512,-5.227883
9.516,-2.50578
9.52,-0.044282
9.524,1.828048
9.528,2.77412
9.532,2.407803
9.536,0.581147
9.54,-1.863839
9.544,-4.147579
9.548,-6.630284
9.552,-9.554481
9.556,-12.115766
9.56,-13.254201
9.564,-12.672215
9.568,-10.944509
9.572,-9.313221
9.576,-9.169318
9.58,-10.68071
9.584,-12.760162
9.588,-14.154947
9.592,-13.747675
9.596,-10.819587
9.6,-5.728942
9.604,-0.365413
9.608,3.038224
9.612,3.866012
9.616,3.179704
9.62,2.118841
9.624,0.762784
9.628,-1.019829
9.632,-2.817072
9.636,-4.779099
9.64,-7.646113
9.644,-11.283634
9.648,-14.183886
9.652,-14.813362
9.656,-13.037838
9.66,-10.139371
9.664,-7.610156
9.668,-5.505128
9.672,-2.602625
9.676,1.716328
9.68,7.183369
9.684,13.240434
9.688,18.893511
9.692,22.943747
9.696,25.243086
9.7,27.069956
9.704,29.0455
9.708,29.794283
9.712,27.565918
9.716,22.173229
9.72,14.932178
9.724,7.36437
9.728,0.877392
9.732,-3.544207
9.736,-6.484727
9.74,-9.363482
9.744,-12.698448
9.748,-15.623648
9.752,-16.692867
9.756,-15.150596
9.76,-11.416219
9.764,-6.57038
9.768,-1.507691
9.772,3.086135
9.776,6.308861
9.78,8.077623
9.784,9.331773
9.788,10.671157
9.792,11.573439
9.796,10.866559
9.8,8.036436
9.804,3.720063
9.808,-0.785964
9.812,-4.51221
9.816,-7.350544
9.82,-9.062303
9.824,-9.288725
9.828,-8.600797
9.832,-8.00745
9.836,-7.302838
9.84,-5.246296
9.844,-1.881238
9.848,1.247591
9.852,3.19749
9.856,4.087428
9.86,4.108199
9.864,3.018053
9.868,0.938802
9.872,-1.094199
9.876,-2.291508
9.88,-2.898864
9.884,-3.26195
9.888,-2.765591
9.892,-0.866638
9.896,1.334202
9.9,2.682614
9.904,3.366278
9.908,3.483792
9.912,2.366207
9.916,-0.034253
9.92,-2.520315
9.924,-4.220111
9.928,-5.230476
9.932,-5.512462
9.936,-4.824534
9.94,-3.232861
9.944,-1.266142
9.948,0.536283
9.952,1.89844
9.956,2.330526
9.96,1.209781
9.964,-1.334399
9.968,-4.041857
9.972,-5.555085
9.976,-5.760317
9.98,-5.161945
9.984,-4.012978
9.988,-2.697463
9.992,-1.993303
9.996,-2.086168
10,-1.721996
10.004,0.432126
10.008,4.076565
10.012,7.789846
10.016,10.373296
10.02,11.566881
10.024,11.682429
10.028,11.188779
10.032,10.403518
10.036,9.320873
10.04,8.203602
10.044,7.585919
10.048,7.398084
10.052,6.963351
10.056,5.872409
10.06,4.244593
10.064,1.703985
10.068,-1.777357
10.072,-3.836305
10.076,-1.658763
10.08,4.085688
10.084,9.80537
10.088,13.507064
10.092,16.045034
10.096,18.145035
10.1,19.598244
10.104,20.429716
10.108,20.802202
10.112,20.339659
10.116,18.712029
10.12,16.560955
10.124,14.57675
10.128,12.517642
10.132,9.8086
10.136,6.51252
10.14,3.730218
10.144,2.64352
10.148,3.294331
10.152,4.541997
10.156,5.051091
10.16,4.731888
10.164,4.801255
10.168,6.381863
10.172,9.253491
10.176,11.810909
10.18,12.538514
10.184,11.127257
10.188,8.481943
10.192,6.121245
10.196,5.140437
10.2,5.693528
10.204,6.913858
10.208,7.791492
10.212,8.149118
10.216,8.331499
10.22,8.664027
10.224,9.032166
10.228,9.211632
10.232,9.452437
10.236,10.073872
10.24,11.176377
10.244,12.902181
10.248,15.501606
10.252,18.287539
10.256,19.475676
10.26,18.282484
10.264,15.081968
10.268,9.840262
10.272,2.479998
10.276,-5.876771
10.28,-13.194485
10.284,-17.996264
10.288,-19.578564
10.292,-17.791059
10.296,-13.699389
10.3,-9.280796
10.304,-6.081477
10.308,-3.954127
10.312,-1.539372
10.316,1.922909
10.32,6.328122
10.324,11.223888
10.328,15.88498
10.332,19.293665
10.336,20.326769
10.34,18.630655
10.344,14.776987
10.348,9.470523
10.352,3.016947
10.356,-3.940355
10.36,-9.49133
10.364,-12.167004
10.368,-12.81679
10.372,-13.016086
10.376,-12.983438
10.38,-11.936135
10.384,-9.4934
10.388,-5.457755
10.392,0.256752
10.396,6.489275
10.4,11.402367
10.404,14.30931
10.408,16.046076
10.412,17.56098
10.416,18.782543
10.42,19.292805
10.424,18.817083
10.428,17.251266
10.432,15.274871
10.436,13.989444
10.44,13.381558
10.444,11.926709
10.448,8.722106
10.452,4.629591
10.456,0.799431
10.46,-1.980788
10.464,-2.960312
10.468,-1.995964
10.472,-0.021684
10.476,1.976212
10.48,4.21378
10.484,6.966186
10.488,9.639223
10.492,11.897664
10.496,13.889827
10.5,15.40386
10.504,15.994665
10.508,15.949418
10.512,15.929639
10.516,15.802397
10.52,15.263223
10.524,14.301254
10.528,12.582559
10.532,9.535185
10.536,5.385981
10.54,1.613901
10.544,-0.624718
10.548,-1.581507
10.552,-2.310868
10.556,-3.911391
10.56,-6.598656
10.564,-9.544502
10.568,-11.721418
10.572,-12.51736
10.576,-11.805662
10.58,-10.170527
10.584,-8.906981
10.588,-8.444462
10.592,-7.610437
10.596,-5.453745
10.6,-2.528301
10.604,-0.135137
10.608,0.95852
10.612,0.736211
10.616,-0.592052
10.62,-2.287281
10.624,-3.177699
10.628,-2.912006
10.632,-2.603697
10.636,-3.394945
10.64,-4.826149
10.644,-6.045052
10.648,-7.314775
10.652,-9.064312
10.656,-10.905156
10.66,-11.944656
10.664,-11.313904
10.668,-8.35998
10.672,-3.63313
10.676,0.629628
10.68,2.524559
10.684,1.953254
10.688,-0.261396
10.692,-3.296731
10.696,-6.328353
10.7,-8.318747
10.704,-8.717705
10.708,-7.737703
10.712,-5.709522
10.716,-3.272745
10.72,-1.657536
10.724,-2.008443
10.728,-4.202855
10.732,-6.650819
10.736,-7.798063
10.74,-7.458978
10.744,-7.023397
10.748,-8.005913
10.752,-10.353202
10.756,-12.771012
10.76,-13.853302
10.764,-13.180405
10.768,-11.490895
10.772,-9.671676
10.776,-8.015668
10.78,-6.231083
10.784,-4.345126
10.788,-3.012565
10.792,-2.673714
10.796,-3.104664
10.8,-3.644222
10.804,-3.69555
10.808,-2.727735
10.812,-0.905032
10.816,0.229289
10.82,-0.395962
10.824,-2.015605
10.828,-3.442982
10.832,-4.307542
10.836,-4.774459
10.84,-5.148816
10.844,-5.800379
10.848,-6.265762
10.852,-5.280282
10.856,-2.791406
10.86,-0.1922
10.864,1.328703
10.868,1.52871
10.872,0.610879
10.876,-1.125726
10.88,-2.84361
10.884,-3.677431
10.888,-3.696179
10.892,-3.631762
10.896,-3.987567
10.9,-4.50809
10.904,-5.162949
10.908,-6.606737
10.912,-9.044978
10.916,-11.821813
10.92,-14.249048
10.924,-16.177322
10.928,-17.206875
10.932,-16.605753
10.936,-14.714287
10.94,-12.693325
10.944,-11.314927
10.948,-10.520205
10.952,-9.836571
10.956,-9.038086
10.96,-8.346985
10.964,-8.41396
10.968,-9.467773
10.972,-10.765887
10.976,-11.525496
10.98,-11.55761
10.984,-11.487563
10.988,-12.281829
10.992,-14.426467
10.996,-17.628773
11,-20.64324
11.004,-22.131609
11.008,-21.967337
11.012,-21.285006
11.016,-21.420195
11.02,-22.464417
11.024,-23.340235
11.028,-23.005283
11.032,-21.411863
11.036,-19.400824
11.04,-17.265125
11.044,-14.55937
11.048,-11.185546
11.052,-7.734396
11.056,-4.974767
11.06,-3.007857
11.064,-1.575526
11.068,-0.774076
11.072,-0.90746
11.076,-1.941532
11.08,-3.162221
11.084,-3.945671
11.088,-4.068468
11.092,-3.513115
11.096,-2.79054
11.1,-2.71434
11.104,-3.796981
11.108,-6.082135
11.112,-9.116487
11.116,-11.891867
11.12,-13.193662
11.124,-12.851837
11.128,-11.740132
11.132,-10.478061
11.136,-9.205911
11.14,-8.085053
11.144,-7.50173
11.148,-7.689929
11.152,-8.376668
11.156,-8.767785
11.16,-7.732751
11.164,-5.098764
11.168,-1.9853
11.172,0.84335
11.176,3.541577
11.18,6.172547
11.184,8.219617
11.188,9.560817
11.192,10.495965
11.196,10.602188
11.2,9.323675
11.204,7.103992
11.208,5.077903
11.212,3.625814
11.216,1.844665
11.22,-0.664796
11.224,-2.855358
11.228,-3.440402
11.232,-2.211971
11.236,-0.143387
11.24,1.740165
11.244,2.891506
11.248,3.296185
11.252,3.353885
11.256,3.224052
11.26,3.022371
11.264,3.052505
11.268,3.457807
11.272,4.049563
11.276,4.505331
11.28,4.672822
11.284,4.095406
11.288,2.54518
11.292,1.024317
11.296,0.57466
11.3,1.038268
11.304,1.402882
11.308,0.952778
11.312,-0.158673
11.316,-1.198782
11.32,-1.300596
11.324,-0.432221
11.328,0.756433
11.332,1.804456
11.336,2.229259
11.34,1.543546
11.344,-0.048763
11.348,-1.164332
11.352,-0.421461
11.356,1.986757
11.36,4.935551
11.364,7.560184
11.368,9.367182
11.372,10.01002
11.376,9.429589
11.38,8.271532
11.384,7.330679
11.388,6.809798
11.392,6.390705
11.396,5.81072
11.4,5.129881
11.404,4.030512
11.408,1.931831
11.412,-0.988614
11.416,-3.743945
11.42,-4.80783
11.424,-3.222339
11.428,0.128682
11.432,3.183029
11.436,4.545452
11.44,4.142651
11.444,2.351464
11.448,0.219549
11.452,-0.73904
11.456,-0.524873
11.46,-0.304655
11.464,-0.271694
11.468,0.310985
11.472,1.164655
11.476,1.004296
11.48,-0.473888
11.484,-2.643517
11.488,-5.092953
11.492,-7.441988
11.496,-8.949425
11.5,-8.846636
11.504,-7.366731
11.508,-5.783855
11.512,-4.993659
11.516,-4.78019
11.52,-4.255312
11.524,-3.029572
11.528,-1.484179
11.532,-0.07268
11.536,0.986038
11.54,1.602474
11.544,1.314417
11.548,-0.093924
11.552,-1.607876
11.556,-2.107602
11.56,-1.621236
11.564,-0.835239
11.568,0.207539
11.572,1.826801
11.576,3.536614
11.58,4.483733
11.584,4.305093
11.588,3.083142
11.592,0.990125
11.596,-1.53605
11.6,-3.163397
11.604,-2.785091
11.608,-0.773923
11.612,1.701466
11.616,3.581279
11.62,4.422054
11.624,4.526834
11.628,4.566265
11.632,4.614839
11.636,3.880599
11.64,2.285199
11.644,0.664726
11.648,-0.18036
11.652,0.283177
11.656,2.141552
11.66,4.738879
11.664,6.58485
11.668,6.583555
11.672,5.055566
11.676,2.945776
11.68,0.916865
11.684,-1.079169
11.688,-3.285937
11.692,-5.314729
11.696,-6.349617
11.7,-5.780148
11.704,-3.880213
11.708,-1.564143
11.712,0.460548
11.716,1.870329
11.72,2.748581
11.724,3.330888
11.728,4.038622
11.732,5.515868
11.736,7.747518
11.74,10.008656
11.744,11.627164
11.748,12.594561
11.752,13.09342
11.756,12.770787
11.76,11.74328
11.764,10.78385
11.768,10.223869
11.772,9.563228
11.776,8.216652
11.78,6.539543
11.784,5.749869
11.788,7.049568
11.792,10.178211
11.796,13.133193
11.8,14.485837
11.804,14.566048
11.808,14.175861
11.812,13.307769
11.816,11.593756
11.82,9.361726
11.824,7.029803
11.828,4.49696
11.832,1.985674
11.836,0.319216
11.84,-0.196964
11.844,-0.853942
11.848,-2.897613
11.852,-5.332457
11.856,-5.979142
11.86,-4.152835
11.864,-1.450333
11.868,0.52892
11.872,1.803841
11.876,2.730365
11.88,3.266971
11.884,3.476048
11.888,3.62995
11.892,3.661931
11.896,3.373539
11.9,3.187184
11.904,3.278875
11.908,2.959846
11.912,1.749606
11.916,-0.178685
11.92,-2.011214
11.924,-2.486972
11.928,-0.659121
11.932,2.895228
11.936,6.59144
11.94,10.220726
11.944,14.829309
11.948,20.403444
11.952,25.323343
11.956,28.018919
11.96,28.709473
11.964,28.606424
11.968,28.400494
11.972,27.996468
11.976,26.708729
11.98,23.388363
11.984,17.123785
11.988,9.167034
11.992,3.100264
11.996,1.379238
12,3.100757
12.004,5.321586
12.008,5.814339
12.012,4.459948
12.016,2.494404
12.02,1.344396
12.024,1.776473
12.028,3.744597
12.032,6.574416
12.036,9.115762
12.04,10.985362
12.044,12.646952
12.048,14.213968
12.052,15.204852
12.056,15.058723
12.06,13.557412
12.064,10.782733
12.068,7.2829
12.072,3.863326
12.076,0.831196
12.08,-1.387058
12.084,-2.082536
12.088,-1.208723
12.092,0.712039
12.096,3.360545
12.1,6.350308
12.104,8.304692
12.108,8.203163
12.112,6.997273
12.116,6.251995
12.12,6.668276
12.124,8.442588
12.128,11.700957
12.132,15.468753
12.136,17.677706
12.14,17.727514
12.144,16.816185
12.148,15.574543
12.152,13.191014
12.156,8.877512
12.16,3.243538
12.164,-2.2125
12.168,-6.050792
12.172,-7.545328
12.176,-6.919874
12.18,-4.661516
12.184,-1.524331
12.188,1.173845
12.192,2.359675
12.196,2.210461
12.2,2.003349
12.204,2.536442
12.208,3.719136
12.212,5.26704
12.216,6.777367
12.22,7.795832
12.224,7.870615
12.228,6.674755
12.232,4.14223
12.236,0.385981
12.24,-3.994147
12.244,-7.986675
12.248,-10.586799
12.252,-11.412137
12.256,-11.087867
12.26,-10.659439
12.264,-10.731472
12.268,-10.944387
12.272,-10.609383
12.276,-9.919051
12.28,-9.498096
12.284,-9.537849
12.288,-9.73562
12.292,-9.772729
12.296,-9.573489
12.3,-9.034245
12.304,-8.2193
12.308,-7.381747
12.312,-6.179723
12.316,-3.804882
12.32,-0.277805
12.324,2.752002
12.328,3.763068
12.332,3.063586
12.336,1.54087
12.34,-0.694707
12.344,-3.807127
12.348,-7.172312
12.352,-9.733428
12.356,-11.247055
12.36,-12.153561
12.364,-13.266502
12.368,-15.486609
12.372,-18.896414
12.376,-22.203962
12.38,-23.521219
12.384,-22.56428
12.388,-20.795588
12.392,-19.287325
12.396,-17.555784
12.4,-14.180389
12.404,-8.741063
12.408,-2.355979
12.412,3.590393
12.416,8.078461
12.42,10.500626
12.424,10.897982
12.428,10.268209
12.432,8.917289
12.436,5.180877
12.44,-1.762359
12.444,-9.82076
12.448,-15.899706
12.452,-18.562551
12.456,-18.423525
12.46,-16.921843
12.464,-15.395208
12.468,-14.216028
12.472,-12.892078
12.476,-11.273444
12.48,-9.449411
12.484,-7.415728
12.488,-5.307518
12.492,-3.27397
12.496,-0.950317
12.5,2.315287
12.504,6.076463
12.508,8.704943
12.512,8.765735
12.516,5.620775
12.52,-0.169918
12.524,-6.973225
12.528,-12.920836
12.532,-17.110983
12.536,-20.021044
12.54,-22.29315
12.544,-23.882746
12.548,-24.183079
12.552,-22.796244
12.556,-20.134634
12.56,-16.498238
12.564,-11.713817
12.568,-6.242601
12.572,-1.696328
12.576,0.827235
12.58,2.188206
12.584,3.307401
12.588,3.788623
12.592,3.65931
12.596,4.166235
12.6,5.678209
12.604,6.261639
12.608,4.27932
12.612,0.912167
12.616,-1.626063
12.62,-2.746587
12.624,-3.316681
12.628,-3.635734
12.632,-3.198435
12.636,-2.178159
12.64,-1.551941
12.644,-2.23695
12.648,-4.321756
12.652,-7.016674
12.656,-9.473784
12.66,-11.086596
12.664,-11.335949
12.668,-9.86619
12.672,-7.307045
12.676,-5.281802
12.68,-4.235121
12.684,-2.817448
12.688,-0.083682
12.692,2.894091
12.696,4.324175
12.7,3.861554
12.704,2.270479
12.708,-0.014827
12.712,-3.008419
12.716,-6.412975
12.72,-8.967706
12.724,-9.558843
12.728,-8.69417
12.732,-8.164642
12.736,-9.302845
12.74,-11.623616
12.744,-13.614969
12.748,-14.274961
12.752,-13.507295
12.756,-12.035188
12.76,-11.172065
12.764,-12.199617
12.768,-14.796529
12.772,-16.6064
12.776,-15.403501
12.78,-10.826618
12.784,-4.297635
12.788,2.142253
12.792,6.78488
12.796,8.729257
12.8,8.214376
12.804,6.10291
12.808,3.526813
12.812,1.708806
12.816,1.035669
12.82,0.905346
12.824,0.586263
12.828,0.083466
12.832,-0.205247
12.836,-0.19146
12.84,0.06432
12.844,0.131282
12.848,-0.535237
12.852,-1.741983
12.856,-2.921624
12.86,-3.996497
12.864,-5.27124
12.868,-6.271647
12.872,-6.026495
12.876,-4.687957
12.88,-3.356915
12.884,-2.931393
12.888,-3.470275
12.892,-4.583044
12.896,-5.838922
12.9,-6.382751
12.904,-5.541834
12.908,-4.000262
12.912,-3.504391
12.916,-4.924029
12.92,-6.931708
12.924,-7.766641
12.928,-7.053403
12.932,-5.227599
12.936,-2.402728
12.94,1.433272
12.944,5.472783
12.948,8.749337
12.952,11.106425
12.956,12.695885
12.96,13.515148
12.964,13.381216
12.968,12.445118
12.972,11.340828
12.976,10.493429
12.98,9.84832
12.984,9.176096
12.988,8.615162
12.992,8.675013
12.996,9.651482
13,11.35072
13.004,12.901078
13.008,13.34416
13.012,12.258503
13.016,9.605597
13.02,6.091222
13.024,3.053859
13.028,1.443475
13.032,1.249975
13.036,1.784162
13.04,2.632483
13.044,3.886271
13.048,5.787939
13.052,8.280346
13.056,10.641269
13.06,11.803447
13.064,11.135628
13.068,9.684699
13.072,9.500483
13.076,10.894438
13.08,12.42572
13.084,13.199543
13.088,13.491129
13.092,13.423868
13.096,12.728621
13.1,12.126025
13.104,12.59741
13.108,13.263718
13.112,12.013232
13.116,8.603648
13.12,5.460308
13.124,4.421495
13.128,5.050389
13.132,6.280687
13.136,7.559925
13.14,8.853334
13.144,10.433744
13.148,12.78463
13.152,15.955406
13.156,19.17585
13.16,21.730207
13.164,23.139513
13.168,22.817854
13.172,20.768904
13.176,18.264643
13.18,16.834646
13.184,16.314472
13.188,15.611104
13.192,14.64718
13.196,13.658358
13.2,12.034472
13.204,9.129826
13.208,5.839747
13.212,3.992499
13.216,4.171411
13.22,5.301001
13.224,5.890344
13.228,5.462075
13.232,4.375458
13.236,2.558575
13.24,0.079017
13.244,-1.967525
13.248,-2.415809
13.252,-1.485823
13.256,-0.21357
13.26,1.282295
13.264,3.460169
13.268,6.259018
13.272,9.218466
13.276,11.769821
13.28,13.326198
13.284,13.342708
13.288,11.819896
13.292,9.269173
13.296,6.069645
13.3,2.72251
13.304,-0.035888
13.308,-1.896875
13.312,-3.185231
13.316,-3.978677
13.32,-3.657463
13.324,-2.289068
13.328,-0.784625
13.332,0.644133
13.336,2.732066
13.34,5.977232
13.344,9.548123
13.348,11.769992
13.352,11.545523
13.356,9.068658
13.36,5.650901
13.364,2.518476
13.368,0.217918
13.372,-1.497195
13.376,-3.477093
13.38,-6.157465
13.384,-8.844173
13.388,-9.645504
13.392,-7.092653
13.396,-2.333785
13.4,1.610409
13.404,2.656637
13.408,1.157416
13.412,-1.396007
13.416,-3.904437
13.42,-5.792377
13.424,-7.008344
13.428,-7.638959
13.432,-7.526711
13.436,-6.704943
13.44,-5.596153
13.444,-4.721761
13.448,-4.610873
13.452,-5.838695
13.456,-7.985224
13.46,-8.993596
13.464,-7.791232
13.468,-6.050096
13.472,-5.684208
13.476,-6.26148
13.48,-5.871836
13.484,-3.772207
13.488,-0.868602
13.492,1.498692
13.496,2.293777
13.5,1.126411
13.504,-1.611988
13.508,-4.408385
13.512,-5.634603
13.516,-5.409587
13.52,-4.993084
13.524,-5.147039
13.528,-5.868122
13.532,-7.269009
13.536,-9.401959
13.54,-11.09375
13.544,-10.810325
13.548,-8.323609
13.552,-4.895835
13.556,-2.269353
13.56,-1.449262
13.564,-2.42545
13.568,-4.022382
13.572,-4.596268
13.576,-3.645523
13.58,-1.828217
13.584,0.07217
13.588,1.557697
13.592,2.078232
13.596,1.235914
13.6,-0.565383
13.604,-2.871148
13.608,-5.590641
13.612,-8.358583
13.616,-10.681528
13.62,-12.231113
13.624,-12.90612
13.628,-12.523281
13.632,-10.625291
13.636,-7.048461
13.64,-2.726899
13.644,0.310378
13.648,0.957888
13.652,0.278038
13.656,-0.180765
13.66,0.088632
13.664,0.789464
13.668,1.705837
13.672,2.72356
13.676,3.478897
13.68,3.829534
13.684,3.963944
13.688,4.282407
13.692,4.89069
13.696,5.016797
13.7,3.838632
13.704,1.543663
13.708,-0.960781
13.712,-2.869846
13.716,-3.464985
13.72,-2.023774
13.724,0.704153
13.728,2.619265
13.732,2.593212
13.736,1.463115
13.74,0.773481
13.744,1.201667
13.748,2.300495
13.752,3.002239
13.756,2.238206
13.76,0.092018
13.764,-2.227856
13.768,-3.831696
13.772,-5.030799
13.776,-6.364256
13.78,-7.476773
13.784,-8.17551
13.788,-9.027024
13.792,-10.196602
13.796,-11.288939
13.8,-12.030228
13.804,-12.34178
13.808,-11.76258
13.812,-9.825858
13.816,-7.22757
13.82,-5.228092
13.824,-4.285678
13.828,-3.624271
13.832,-2.449003
13.836,-1.002701
13.84,0.282755
13.844,1.266848
13.848,1.690176
13.852,1.11143
13.856,-0.772681
13.86,-3.61298
13.864,-6.589503
13.868,-8.386117
13.872,-7.813667
13.876,-5.139872
13.88,-1.921944
13.884,0.258264
13.888,0.806197
13.892,0.030911
13.896,-1.373623
13.9,-2.265767
13.904,-1.610505
13.908,0.369881
13.912,1.949594
13.916,2.02845
13.92,1.787758
13.924,2.329105
13.928,2.631958
13.932,1.457169
13.936,-0.616096
13.94,-2.453022
13.944,-4.128472
13.948,-5.723944
13.952,-6.247256
13.956,-5.395175
13.96,-4.518902
13.964,-4.642931
13.968,-4.895588
13.972,-4.281144
13.976,-3.397578
13.98,-3.156716
13.984,-3.795236
13.988,-5.270189
13.992,-7.467974
13.996,-10.147676
14,-12.610731
14.004,-14.255881
14.008,-15.25438
14.012,-15.960386
14.016,-16.11409
14.02,-15.250537
14.024,-13.746862
14.028,-12.25804
14.032,-10.967852
14.036,-9.79007
14.04,-8.290703
14.044,-6.311866
14.048,-4.52142
14.052,-3.806358
14.056,-4.429677
14.06,-5.867638
14.064,-7.454878
14.068,-8.653235
14.072,-9.146747
14.076,-8.911819
14.08,-8.065819
14.084,-6.960257
14.088,-5.839916
14.092,-4.8519
14.096,-4.559115
14.1,-5.515475
14.104,-7.406357
14.108,-9.007549
14.112,-9.288568
14.116,-8.241533
14.12,-6.48291
14.124,-4.715014
14.128,-3.042101
14.132,-1.096915
14.136,1.011661
14.14,2.610565
14.144,3.058815
14.148,2.227936
14.152,0.469544
14.156,-1.595181
14.16,-3.066189
14.164,-3.515365
14.168,-3.431103
14.172,-3.557667
14.176,-4.021687
14.18,-4.200624
14.184,-3.757598
14.188,-3.095968
14.192,-2.759541
14.196,-2.853311
14.2,-3.05152
14.204,-3.437438
14.208,-4.335032
14.212,-5.555169
14.216,-6.598531
14.22,-6.835095
14.224,-5.753888
14.228,-3.513722
14.232,-1.451199
14.236,-1.27012
14.24,-3.201899
14.244,-5.916798
14.248,-7.763073
14.252,-7.982719
14.256,-7.095518
14.26,-5.804551
14.264,-4.365157
14.268,-2.781271
14.272,-0.940013
14.276,1.277684
14.28,3.617811
14.284,4.817507
14.288,3.781172
14.292,1.143695
14.296,-1.724165
14.3,-4.231411
14.304,-6.408233
14.308,-7.769262
14.312,-7.820621
14.316,-7.387328
14.32,-7.593336
14.324,-8.409367
14.328,-8.782818
14.332,-8.031797
14.336,-6.45852
14.34,-4.480117
14.344,-2.523747
14.348,-1.409982
14.352,-1.777019
14.356,-3.089525
14.36,-3.787288
14.364,-3.191548
14.368,-1.999881
14.372,-1.126788
14.376,-0.925132
14.38,-1.244986
14.384,-1.902855
14.388,-2.542477
14.392,-2.672201
14.396,-2.235964
14.4,-1.343201
14.404,-0.069416
14.408,1.333378
14.412,2.32909
14.416,2.882855
14.42,3.936275
14.424,6.071556
14.428,8.83019
14.432,11.613769
14.436,13.998267
14.44,15.188499
14.444,14.113441
14.448,10.95292
14.452,7.234705
14.456,3.707505
14.46,-0.224573
14.464,-4.854393
14.468,-9.28355
14.472,-12.96701
14.476,-16.451479
14.48,-19.575548
14.484,-21.156965
14.488,-20.354115
14.492,-17.184204
14.496,-12.137566
14.5,-6.278426
14.504,-1.341547
14.508,1.787358
14.512,3.928178
14.516,6.486334
14.52,10.268354
14.524,14.888703
14.528,19.086159
14.532,21.305689
14.536,20.677362
14.54,18.025492
14.544,14.962894
14.548,12.173319
14.552,9.088713
14.556,5.197297
14.56,1.162108
14.564,-2.066819
14.568,-3.972465
14.572,-4.073966
14.576,-1.877498
14.58,2.288966
14.584,6.490516
14.588,8.680659
14.592,8.454047
14.596,6.593404
14.6,4.091217
14.604,1.895858
14.608,1.022863
14.612,1.577721
14.616,2.09436
14.62,1.069896
14.624,-1.606614
14.628,-4.72019
14.632,-6.815656
14.636,-7.033959
14.64,-5.12453
14.644,-1.561667
14.648,2.713686
14.652,6.452137
14.656,8.338985
14.66,7.935496
14.664,5.750439
14.668,2.500308
14.672,-1.403132
14.676,-5.606497
14.68,-8.864287
14.684,-9.711366
14.688,-7.900976
14.692,-4.803878
14.696,-2.296398
14.7,-1.139325
14.704,-0.712344
14.708,0.166574
14.712,1.985464
14.716,4.224313
14.72,6.365027
14.724,7.748796
14.728,7.905282
14.732,7.834061
14.736,9.433707
14.74,12.988352
14.744,16.190687
14.748,16.680588
14.752,14.175367
14.756,9.922864
14.76,5.48568
14.764,1.640818
14.768,-1.888979
14.772,-5.659033
14.776,-9.417052
14.78,-12.079124
14.784,-12.960166
14.788,-12.316337
14.792,-11.072679
14.796,-10.061038
14.8,-9.103944
14.804,-7.530202
14.808,-5.135491
14.812,-2.203445
14.816,0.710199
14.82,3.334699
14.824,6.338448
14.828,11.018185
14.832,17.394749
14.836,23.121138
14.84,25.362627
14.844,23.105579
14.848,17.875078
14.852,12.228267
14.856,7.377393
14.86,2.921381
14.864,-1.960689
14.868,-7.534494
14.872,-13.278223
14.876,-17.79784
14.88,-19.390942
14.884,-17.967672
14.888,-15.247244
14.892,-12.810028
14.896,-11.107769
14.9,-9.93948
14.904,-9.148317
14.908,-8.392522
14.912,-7.162631
14.916,-5.413161
14.92,-3.355752
14.924,-1.300674
14.928,0.479487
14.932,1.733518
14.936,2.130045
14.94,1.788298
14.944,1.431053
14.948,2.033169
14.952,3.655452
14.956,4.996316
14.96,4.972396
14.964,3.436914
14.968,0.644674
14.972,-2.920745
14.976,-6.132994
14.98,-7.626904
14.984,-7.270051
14.988,-6.004387
14.992,-4.586394
14.996,-3.093585
15,-1.169731
15.004,1.262818
15.008,3.74876
15.012,5.765034
15.016,7.169158
15.02,8.128517
15.024,8.177935
15.028,6.466722
15.032,2.872917
15.036,-1.640617
15.04,-5.464814
15.044,-7.45948
15.048,-7.481158
15.052,-5.863338
15.056,-2.896397
15.06,1.115579
15.064,5.207869
15.068,8.251388
15.072,9.469196
15.076,8.175817
15.08,4.398654
15.084,-0.367125
15.088,-3.638337
15.092,-4.007681
15.096,-2.574796
15.1,-1.548703
15.104,-1.87568
15.108,-2.590333
15.112,-2.626441
15.116,-2.372819
15.12,-2.575212
15.124,-3.062853
15.128,-2.88919
15.132,-1.32401
15.136,1.621847
15.14,5.357021
15.144,8.485506
15.148,9.60054
15.152,8.841431
15.156,7.751907
15.16,7.893277
15.164,9.630556
15.168,12.145884
15.172,14.1403
15.176,14.967073
15.18,15.114532
15.184,14.864063
15.188,14.065027
15.192,13.195254
15.196,13.10393
15.2,14.018215
15.204,15.284561
15.208,16.256186
15.212,16.891752
15.216,17.401548
15.22,17.655329
15.224,17.1131
15.228,15.903194
15.232,14.758681
15.236,13.61643
15.24,11.906611
15.244,9.97822
15.248,9.001519
15.252,9.291409
15.256,10.088914
15.26,11.077641
15.264,12.379652
15.268,13.783866
15.272,14.806675
15.276,15.161085
15.28,15.154874
15.284,15.597406
15.288,17.25329
15.292,19.715366
15.296,21.46689
15.3,21.700075
15.304,20.791224
15.308,19.452148
15.312,18.280783
15.316,18.009773
15.32,19.215492
15.324,21.093636
15.328,21.830757
15.332,20.56324
15.336,17.99947
15.34,15.361314
15.344,13.207886
15.348,11.831733
15.352,11.700114
15.356,13.017377
15.36,15.372963
15.364,17.467924
15.368,17.701685
15.372,15.421454
15.376,11.386491
15.38,7.359576
15.384,4.808493
15.388,4.306359
15.392,5.532738
15.396,7.291654
15.4,8.202076
15.404,7.786862
15.408,6.924455
15.412,6.588091
15.416,7.008138
15.42,8.467442
15.424,11.049614
15.428,14.110179
15.432,16.810213
15.436,18.858206
15.44,20.657314
15.444,22.703863
15.448,25.385462
15.452,28.785955
15.456,32.661842
15.46,36.724686
15.464,40.165302
15.468,41.794811
15.472,41.052322
15.476,38.604198
15.48,35.695599
15.484,32.91357
15.488,30.556881
15.492,28.752508
15.496,26.792824
15.5,24.187941
15.504,21.821247
15.508,20.983641
15.512,21.564976
15.516,22.349707
15.52,23.007269
15.524,23.845419
15.528,24.548641
15.532,24.529469
15.536,24.113943
15.54,24.410015
15.544,25.805349
15.548,27.990259
15.552,30.551895
15.556,32.770599
15.56,33.856232
15.564,33.427437
15.568,32.162891
15.572,31.414139
15.576,31.721231
15.58,32.339252
15.584,32.16576
15.588,31.110828
15.592,29.964077
15.596,29.442003
15.6,30.037563
15.604,31.644037
15.608,33.26086
15.612,33.607841
15.616,32.449764
15.62,30.774632
15.624,28.931658
15.628,26.370338
15.632,23.455286
15.636,21.874104
15.64,23.010448
15.644,26.476017
15.648,30.802698
15.652,34.258556
15.656,35.214394
15.66,33.330711
15.664,30.072531
15.668,27.630066
15.672,26.809805
15.676,26.263762
15.68,23.79656
15.684,17.637745
15.688,7.730869
15.692,-3.818091
15.696,-14.229818
15.7,-22.113537
15.704,-27.954079
15.708,-32.236927
15.712,-34.77887
15.716,-35.911236
15.72,-36.325989
15.724,-35.908524
15.728,-34.048264
15.732,-31.655499
15.736,-31.001385
15.74,-32.810974
15.744,-35.245495
15.748,-35.974125
15.752,-34.581135
15.756,-32.36441
15.76,-30.460052
15.764,-29.716236
15.768,-31.211576
15.772,-35.208912
15.776,-40.109928
15.78,-44.054634
15.784,-47.018864
15.788,-49.483959
15.792,-50.61187
15.796,-49.645828
15.8,-47.436081
15.804,-45.398666
15.808,-43.650776
15.812,-41.482277
15.816,-38.955086
15.82,-36.522785
15.824,-33.890228
15.828,-30.476082
15.832,-27.010967
15.836,-25.022684
15.84,-24.595657
15.844,-24.911568
15.848,-25.832443
15.852,-27.265894
15.856,-28.214334
15.86,-27.921419
15.864,-27.239599
15.868,-27.540327
15.872,-29.191051
15.876,-31.271038
15.88,-32.056091
15.884,-30.801397
15.888,-28.704641
15.892,-27.553677
15.896,-27.701462
15.9,-28.006336
15.904,-27.71653
15.908,-27.243044
15.912,-27.274801
15.916,-27.803665
15.92,-28.119219
15.924,-27.836298
15.928,-26.899805
15.932,-25.251125
15.936,-23.334894
15.94,-22.179821
15.944,-22.323442
15.948,-22.687128
15.952,-21.744366
15.956,-19.804562
15.96,-18.765005
15.964,-19.725368
15.968,-21.547792
15.972,-22.687496
15.976,-23.097576
15.98,-23.381685
15.984,-24.027029
15.988,-25.536285
15.992,-28.048828
15.996,-30.88579
16,-33.070053
16.004,-34.348568
16.008,-34.718887
16.012,-34.083191
16.016,-32.743969
16.02,-31.062548
16.024,-28.842539
16.028,-25.670723
16.032,-22.326504
16.036,-20.442213
16.04,-19.800592
16.044,-18.370251
16.048,-15.38966
16.052,-12.462978
16.056,-10.887293
16.06,-9.948206
16.064,-9.096217
16.068,-9.058593
16.072,-10.170698
16.076,-11.695141
16.08,-13.127922
16.084,-15.190885
16.088,-18.49382
16.092,-22.39287
16.096,-25.717831
16.1,-27.630852
16.104,-28.044502
16.108,-27.307184
16.112,-25.873871
16.116,-24.192976
16.12,-22.605993
16.124,-21.70759
16.128,-21.682203
16.132,-21.659908
16.136,-20.66181
16.14,-18.864399
16.144,-17.61536
16.148,-17.716467
16.152,-18.583771
16.156,-19.294403
16.16,-19.322638
16.164,-18.477713
16.168,-16.704645
16.172,-14.661728
16.176,-13.607782
16.18,-13.939437
16.184,-14.867095
16.188,-15.199185
16.192,-14.306185
16.196,-12.717519
16.2,-11.485963
16.204,-11.313987
16.208,-12.097092
16.212,-13.352714
16.216,-14.649972
16.22,-15.339086
16.224,-15.198919
16.228,-14.881392
16.232,-15.052506
16.236,-15.75914
16.24,-16.76862
16.244,-17.928421
16.248,-18.636152
16.252,-18.355846
16.256,-17.502434
16.26,-16.465612
16.264,-15.18484
16.268,-13.898602
16.272,-13.28451
16.276,-13.47016
16.28,-13.477612
16.284,-12.489408
16.288,-10.933533
16.292,-9.846739
16.296,-9.427982
16.3,-8.795914
16.304,-7.395331
16.308,-5.339396
16.312,-2.92432
16.316,-0.689801
16.32,0.565224
16.324,0.124753
16.328,-1.51958
16.332,-2.740445
16.336,-2.702156
16.34,-2.260262
16.344,-2.508124
16.348,-2.985158
16.352,-2.705735
16.356,-1.871857
16.36,-1.088942
16.364,-0.134558
16.368,1.71981
16.372,4.309366
16.376,6.633008
16.38,8.137857
16.384,8.579481
16.388,7.750457
16.392,6.005093
16.396,4.246488
16.4,3.322153
16.404,3.725121
16.408,5.589823
16.412,7.86875
16.416,8.62148
16.42,7.44176
16.424,5.818355
16.428,4.663
16.432,3.265297
16.436,1.504969
16.44,1.101876
16.444,2.986811
16.448,5.921891
16.452,8.584447
16.456,10.958749
16.46,13.055927
16.464,13.590295
16.468,11.516147
16.472,8.069625
16.476,5.784079
16.48,5.536877
16.484,5.552202
16.488,4.271885
16.492,2.499914
16.496,1.720499
16.5,1.988157
16.504,2.470898
16.508,3.216612
16.512,4.668671
16.516,6.459992
16.52,8.209017
16.524,10.124463
16.528,12.471527
16.532,15.000594
16.536,17.190636
16.54,18.703896
16.544,19.309235
16.548,18.961561
16.552,17.583454
16.556,15.206933
16.56,12.758612
16.564,11.666824
16.568,12.488969
16.572,14.100763
16.576,14.837069
16.58,14.578403
16.584,14.778129
16.588,16.651463
16.592,19.66367
16.596,22.132412
16.6,23.137632
16.604,22.93445
16.608,22.303003
16.612,22.070444
16.616,22.654766
16.62,23.751049
16.624,24.279755
16.628,23.585371
16.632,22.184261
16.636,20.91053
16.64,19.917561
16.644,18.484468
16.648,16.153883
16.652,13.604346
16.656,12.3554
16.66,13.935132
16.664,18.424
16.668,23.985182
16.672,28.093517
16.676,29.288881
16.68,27.647522
16.684,24.03504
16.688,20.096022
16.692,17.569538
16.696,16.415482
16.7,14.815775
16.704,11.374809
16.708,6.755776
16.712,2.370494
16.716,-1.536593
16.72,-5.091306
16.724,-7.342217
16.728,-7.283653
16.732,-5.750168
16.736,-4.174049
16.74,-2.317377
16.744,0.467075
16.748,3.776216
16.752,7.092443
16.756,10.67797
16.76,14.829072
16.764,18.737158
16.768,20.958363
16.772,20.875549
16.776,19.188873
16.78,16.659658
16.784,13.076933
16.788,8.723481
16.792,4.731204
16.796,1.25665
16.8,-2.521381
16.804,-6.459613
16.808,-8.990634
16.812,-9.148773
16.816,-7.597783
16.82,-5.151344
16.824,-2.122045
16.828,0.890036
16.832,3.034228
16.836,4.653528
16.84,7.092861
16.844,10.314333
16.848,12.890092
16.852,14.27788
16.856,15.228875
16.86,16.279142
16.864,16.949858
16.868,16.526958
16.872,14.6263
16.876,11.508079
16.88,8.473404
16.884,6.86376
16.888,6.682749
16.892,6.686955
16.896,5.821921
16.9,4.241927
16.904,2.61815
16.908,1.623541
16.912,1.633262
16.916,2.296307
16.92,3.198832
16.924,4.586265
16.928,7.003292
16.932,10.212397
16.936,13.239623
16.94,15.656367
16.944,17.632416
16.948,19.500643
16.952,21.597111
16.956,24.23797
16.96,27.264038
16.964,29.03635
16.968,27.549952
16.972,22.771139
16.976,16.946192
16.98,12.417351
16.984,9.471046
16.988,7.048635
16.992,4.220957
16.996,0.380416
17,-4.775838
17.004,-10.588518
17.008,-14.740641
17.012,-15.035613
17.016,-11.876429
17.02,-7.609468
17.024,-3.865368
17.028,-0.182717
17.032,4.197715
17.036,8.743566
17.04,12.819176
17.044,16.64752
17.048,20.645729
17.052,24.120573
17.056,25.681377
17.06,24.972927
17.064,22.75251
17.068,19.869707
17.072,16.35314
17.076,12.093396
17.08,7.975887
17.084,4.823147
17.088,2.364618
17.092,-0.060416
17.096,-2.333506
17.1,-3.72545
17.104,-3.947917
17.108,-2.91028
17.112,-0.53837
17.116,2.551868
17.12,4.993434
17.124,5.657621
17.128,5.181594
17.132,5.218329
17.136,6.420453
17.14,8.50131
17.144,10.984233
17.148,13.182293
17.152,14.136906
17.156,13.681619
17.16,12.922207
17.164,12.451461
17.168,11.44102
17.172,8.964531
17.176,5.514814
17.18,2.315492
17.184,-0.461919
17.188,-2.872324
17.192,-4.145493
17.196,-3.947716
17.2,-3.220322
17.204,-3.29096
17.208,-4.386825
17.212,-5.51466
17.216,-5.537254
17.22,-3.972554
17.224,-1.011992
17.228,2.953742
17.232,6.772368
17.236,8.530599
17.24,7.496123
17.244,4.421019
17.248,0.073661
17.252,-5.319792
17.256,-10.87128
17.26,-14.589187
17.264,-15.4712
17.268,-14.896148
17.272,-15.207524
17.276,-17.089302
17.28,-18.944563
17.284,-19.528748
17.288,-19.087551
17.292,-17.701912
17.296,-14.508474
17.3,-9.2651
17.304,-3.239129
17.308,2.593059
17.312,8.095136
17.316,12.217493
17.32,13.013058
17.324,9.924921
17.328,5.220566
17.332,1.695385
17.336,-0.17763
17.34,-1.6393
17.344,-3.6768
17.348,-6.353302
17.352,-9.555666
17.356,-13.504793
17.36,-18.033627
17.364,-22.038202
17.368,-23.832767
17.372,-22.828123
17.376,-20.099489
17.38,-16.906689
17.384,-14.100924
17.388,-12.475176
17.392,-12.362333
17.396,-12.841326
17.4,-12.330325
17.404,-10.528917
17.408,-8.382105
17.412,-6.724582
17.416,-5.718564
17.42,-5.117811
17.424,-4.856663
17.428,-5.213019
17.432,-6.767222
17.436,-9.891847
17.44,-14.128869
17.444,-18.629465
17.448,-22.516722
17.452,-25.024742
17.456,-25.468466
17.46,-23.664825
17.464,-20.919479
17.468,-19.008781
17.472,-18.231552
17.476,-17.654787
17.48,-16.679394
17.484,-15.292909
17.488,-13.306665
17.492,-11.068383
17.496,-9.45398
17.5,-8.276781
17.504,-6.645927
17.508,-4.775107
17.512,-4.113272
17.516,-5.483694
17.52,-8.228665
17.524,-11.302733
17.528,-13.686175
17.532,-14.619296
17.536,-14.359941
17.54,-14.127248
17.544,-14.675565
17.548,-15.06795
17.552,-14.053268
17.556,-11.971023
17.56,-10.055312
17.564,-8.746776
17.568,-7.658297
17.572,-6.744609
17.576,-5.860096
17.58,-4.210687
17.584,-1.952281
17.588,-0.52207
17.592,-0.872964
17.596,-2.644819
17.6,-4.912373
17.604,-6.938119
17.608,-8.0829
17.612,-8.107015
17.616,-7.348543
17.62,-6.253888
17.624,-5.381763
17.628,-4.981256
17.632,-4.781758
17.636,-4.540765
17.64,-4.296546
17.644,-4.223468
17.648,-4.18855
17.652,-3.909778
17.656,-3.333533
17.66,-2.426257
17.664,-1.254299
17.668,0.253462
17.672,1.957681
17.676,2.969125
17.68,2.35668
17.684,0.065921
17.688,-2.799821
17.692,-5.011463
17.696,-6.122634
17.7,-5.972159
17.704,-4.582935
17.708,-2.471538
17.712,-0.52391
17.716,0.936323
17.72,2.286894
17.724,3.38357
17.728,3.727813
17.732,3.312281
17.736,2.697431
17.74,2.497637
17.744,2.60304
17.748,2.528257
17.752,2.338942
17.756,2.81898
17.76,4.495252
17.764,6.768471
17.768,8.745314
17.772,9.918146
17.776,10.189385
17.78,9.860729
17.784,9.292259
17.788,8.746871
17.792,8.124596
17.796,7.08746
17.8,5.771243
17.804,4.885541
17.808,5.234368
17.812,6.677978
17.816,8.122548
17.82,9.029386
17.824,10.1347
17.828,12.601063
17.832,16.112776
17.836,18.519012
17.84,17.932743
17.844,14.386671
17.848,9.769984
17.852,6.577381
17.856,6.616134
17.86,9.779274
17.864,13.275526
17.868,13.640586
17.872,9.861518
17.876,4.260248
17.88,0.379452
17.884,-0.295183
17.888,0.89606
17.892,1.765341
17.896,1.48651
17.9,0.990873
17.904,1.296773
17.908,2.391681
17.912,3.58346
17.916,4.299115
17.92,4.248196
17.924,3.450369
17.928,2.992027
17.932,4.146811
17.936,6.592901
17.94,9.138429
17.944,11.231833
17.948,12.775764
17.952,13.417095
17.956,13.151178
17.96,12.535656
17.964,11.754833
17.968,10.958951
17.972,10.597075
17.976,10.479748
17.98,9.510233
17.984,6.892337
17.988,3.567312
17.992,1.365751
17.996,0.880695
18,1.385037
18.004,2.350069
18.008,4.096871
18.012,6.420182
18.016,8.187101
18.02,8.846914
18.024,8.795566
18.028,8.507299
18.032,7.947385
18.036,6.923326
18.04,5.376461
18.044,2.971664
18.048,-0.484365
18.052,-4.581654
18.056,-8.135969
18.06,-9.167816
18.064,-6.68548
18.068,-2.451845
18.072,0.101585
18.076,-0.761518
18.08,-3.703621
18.084,-6.343455
18.088,-7.170145
18.092,-6.132314
18.096,-4.215553
18.1,-2.442137
18.104,-1.571648
18.108,-1.372304
18.112,-0.500667
18.116,2.029173
18.12,5.404116
18.124,7.350517
18.128,6.734595
18.132,4.855221
18.136,3.70663
18.14,3.901212
18.144,4.608039
18.148,4.99355
18.152,4.514367
18.156,2.848068
18.16,0.632721
18.164,-0.82451
18.168,-0.601834
18.172,1.162433
18.176,3.638855
18.18,6.068957
18.184,7.982646
18.188,9.480918
18.192,10.990843
18.196,12.528154
18.2,13.848948
18.204,14.747723
18.208,14.919113
18.212,13.746932
18.216,11.141911
18.22,8.195923
18.224,5.840942
18.228,3.812758
18.232,1.27853
18.236,-1.89831
18.24,-4.600917
18.244,-5.544625
18.248,-4.480466
18.252,-2.311065
18.256,-0.343115
18.26,0.349555
18.264,-0.863212
18.268,-3.608016
18.272,-6.708368
18.276,-9.010912
18.28,-9.756893
18.284,-8.94855
18.288,-6.983231
18.292,-4.036793
18.296,-0.337499
18.3,3.355455
18.304,6.402025
18.308,9.278128
18.312,12.192023
18.316,13.82373
18.32,13.221166
18.324,11.447268
18.328,10.125057
18.332,9.28583
18.336,8.079267
18.34,6.332424
18.344,4.096649
18.348,1.364214
18.352,-1.186165
18.356,-2.239436
18.36,-1.395648
18.364,-0.18225
18.368,-0.206929
18.372,-1.143452
18.376,-1.347049
18.38,-0.149208
18.384,1.320899
18.388,2.008578
18.392,2.103288
18.396,2.221573
18.4,2.655171
18.404,3.366843
18.408,4.207678
18.412,4.496051
18.416,3.50146
18.42,1.728195
18.424,0.380737
18.428,-0.149085
18.432,-0.801536
18.436,-2.55633
18.44,-5.165664
18.444,-7.446387
18.448,-8.157056
18.452,-7.342724
18.456,-6.300495
18.46,-5.604393
18.464,-4.406994
18.468,-1.483109
18.472,3.539753
18.476,9.903114
18.48,15.836266
18.484,19.173052
18.488,19.177473
18.492,17.247913
18.496,15.235894
18.5,13.690717
18.504,12.013945
18.508,9.863628
18.512,7.372603
18.516,4.75232
18.52,2.48649
18.524,0.729821
18.528,-1.156579
18.532,-3.733607
18.536,-6.430242
18.54,-7.942159
18.544,-7.595272
18.548,-5.681312
18.552,-3.269332
18.556,-1.454745
18.56,-0.224116
18.564,1.185449
18.568,3.064348
18.572,4.79955
18.576,5.992247
18.58,6.931196
18.584,7.385592
18.588,6.84777
18.592,5.58392
18.596,4.047667
18.6,1.885801
18.604,-1.641095
18.608,-6.379949
18.612,-11.408611
18.616,-15.717554
18.62,-18.635975
18.624,-20.411469
18.628,-21.538874
18.632,-21.599524
18.636,-19.35961
18.64,-14.006492
18.644,-6.334986
18.648,1.783036
18.652,8.410596
18.656,12.257194
18.66,13.335258
18.664,12.92123
18.668,12.533458
18.672,12.323297
18.676,11.350099
18.68,9.418304
18.684,7.192061
18.688,5.431786
18.692,4.421902
18.696,3.909106
18.7,3.435839
18.704,2.652146
18.708,1.426545
18.712,-0.760825
18.716,-4.372805
18.72,-8.731925
18.724,-12.483714
18.728,-14.284809
18.732,-13.380962
18.736,-10.319874
18.74,-7.19337
18.744,-6.223847
18.748,-7.417393
18.752,-9.05322
18.756,-10.146302
18.76,-10.962915
18.764,-11.770513
18.768,-12.093707
18.772,-11.697589
18.776,-11.08497
18.78,-10.521745
18.784,-10.058789
18.788,-10.218441
18.792,-11.786901
18.796,-14.401335
18.8,-16.52104
18.804,-17.530386
18.808,-18.240454
18.812,-19.481115
18.816,-21.31212
18.82,-23.26371
18.824,-24.64324
18.828,-24.787323
18.832,-23.778606
18.836,-21.812349
18.84,-18.563354
18.844,-14.594149
18.848,-11.123387
18.852,-7.93257
18.856,-3.920094
18.86,0.474297
18.864,3.671356
18.868,5.354299
18.872,6.083013
18.876,5.999209
18.88,5.249827
18.884,4.392842
18.888,3.828974
18.892,2.933629
18.896,0.633586
18.9,-3.177854
18.904,-7.612096
18.908,-11.657968
18.912,-14.754572
18.916,-16.375046
18.92,-15.851675
18.924,-13.152227
18.928,-9.262836
18.932,-5.785122
18.936,-3.714304
18.94,-2.594437
18.944,-1.480272
18.948,-0.128714
18.952,1.035916
18.956,1.914725
18.96,2.905121
18.964,3.727021
18.968,3.58917
18.972,2.35327
18.976,0.670183
18.98,-0.992268
18.984,-2.848324
18.988,-4.810883
18.992,-6.439794
18.996,-7.966339
19,-9.781046
19.004,-11.344534
19.008,-11.465519
19.012,-9.825027
19.016,-7.245076
19.02,-4.637987
19.024,-2.648964
19.028,-1.478737
19.032,-1.057438
19.036,-1.347904
19.04,-2.015785
19.044,-2.269845
19.048,-1.27073
19.052,1.06807
19.056,4.046695
19.06,6.757676
19.064,8.328786
19.068,8.655529
19.072,8.683877
19.076,9.296461
19.08,10.013757
19.084,9.463108
19.088,7.347858
19.092,4.58409
19.096,1.882168
19.1,-0.536857
19.104,-2.328465
19.108,-3.108988
19.112,-3.506869
19.116,-4.49797
19.12,-5.709856
19.124,-6.074456
19.128,-5.218015
19.132,-3.26677
19.136,0.10585
19.14,4.979372
19.144,10.054355
19.148,13.65394
19.152,14.959353
19.156,14.185349
19.16,12.316169
19.164,10.398071
19.168,9.310253
19.172,9.498411
19.176,10.782135
19.18,12.381199
19.184,13.174512
19.188,12.604987
19.192,10.967669
19.196,9.009113
19.2,7.57595
19.204,7.093419
19.208,7.622998
19.212,8.626605
19.216,9.175731
19.22,8.979488
19.224,8.414469
19.228,7.812027
19.232,7.036098
19.236,6.116315
19.24,5.638629
19.244,5.719765
19.248,5.891325
19.252,5.655122
19.256,4.775347
19.26,3.431019
19.264,2.032525
19.268,1.077808
19.272,0.600572
19.276,0.258807
19.28,-0.151831
19.284,-0.859258
19.288,-1.747975
19.292,-2.444181
19.296,-3.041038
19.3,-4.119544
19.304,-5.949086
19.308,-7.802973
19.312,-8.783055
19.316,-8.717671
19.32,-8.155922
19.324,-7.717391
19.328,-7.187067
19.332,-6.179626
19.336,-4.958294
19.34,-3.654854
19.344,-2.138671
19.348,-1.178199
19.352,-2.074355
19.356,-4.112766
19.36,-4.686187
19.364,-2.712932
19.368,0.896983
19.372,5.482652
19.376,10.841389
19.38,15.824673
19.384,18.697195
19.388,18.988232
19.392,17.360992
19.396,14.363294
19.4,10.547393
19.404,6.753199
19.408,3.841718
19.412,1.997981
19.416,0.872024
19.42,0.279172
19.424,0.074362
19.428,-0.115715
19.432,-1.009561
19.436,-2.862914
19.44,-4.718675
19.444,-5.365993
19.448,-4.295837
19.452,-2.098228
19.456,0.171933
19.46,2.046892
19.464,3.499952
19.468,4.560342
19.472,5.263125
19.476,5.857728
19.48,6.445179
19.484,6.9179
19.488,7.889389
19.492,9.876937
19.496,12.020666
19.5,12.856663
19.504,11.517181
19.508,8.324617
19.512,4.351553
19.516,0.579212
19.52,-2.663839
19.524,-5.527508
19.528,-7.673027
19.532,-8.500749
19.536,-7.863975
19.54,-6.090113
19.544,-3.944531
19.548,-2.135525
19.552,-1.074917
19.556,-0.631686
19.56,0.014381
19.564,1.137929
19.568,1.576311
19.572,-0.212449
19.576,-4.314469
19.58,-9.317212
19.584,-13.781601
19.588,-16.855824
19.592,-18.43984
19.596,-18.887917
19.6,-18.212931
19.604,-16.473082
19.608,-14.268916
19.612,-12.212749
19.616,-10.261107
19.62,-8.001716
19.624,-5.293922
19.628,-1.93859
19.632,2.327294
19.636,7.169464
19.64,11.650681
19.644,14.956645
19.648,17.247122
19.652,19.121414
19.656,20.435665
19.66,20.173273
19.664,17.404659
19.668,12.386054
19.672,6.314284
19.676,0.498147
19.68,-4.108602
19.684,-7.404346
19.688,-9.769696
19.692,-11.364338
19.696,-11.937127
19.7,-11.145907
19.704,-9.149394
19.708,-6.612171
19.712,-4.363913
19.716,-2.870166
19.72,-1.811733
19.724,-0.640647
19.728,0.998627
19.732,3.037371
19.736,5.182591
19.74,7.264287
19.744,8.900013
19.748,9.737507
19.752,9.82256
19.756,9.032832
19.76,6.78926
19.764,3.253298
19.768,0.310743
19.772,-0.831672
19.776,-1.467147
19.78,-2.97197
19.784,-4.804174
19.788,-6.099113
19.792,-7.446048
19.796,-9.291359
19.8,-10.301597
19.804,-9.106254
19.808,-6.186277
19.812,-3.122198
19.816,-0.246816
19.82,3.437282
19.824,7.828433
19.828,11.580535
19.832,14.397034
19.836,17.42552
19.84,21.009348
19.844,23.868011
19.848,25.250317
19.852,25.682575
19.856,25.617146
19.86,24.933083
19.864,23.319918
19.868,20.76527
19.872,17.53322
19.876,14.037827
19.88,10.462241
19.884,6.267186
19.888,1.124753
19.892,-4.310805
19.896,-8.991529
19.9,-12.518014
19.904,-15.354406
19.908,-17.62565
19.912,-18.990492
19.916,-19.50926
19.92,-19.247858
19.924,-17.51564
19.928,-13.732023
19.932,-8.955099
19.936,-4.834463
19.94,-1.686902
19.944,1.066698
19.948,3.906564
19.952,6.667195
19.956,8.145562
19.96,7.000679
19.964,3.546376
19.968,0.03797
19.972,-1.79718
19.976,-2.337858
19.98,-2.880117
19.984,-4.229991
19.988,-6.145026
19.992,-7.950751
19.996,-9.27172
20,-9.97802
20.004,-10.12818
20.008,-10.124567
20.012,-10.809899
20.016,-12.104846
20.02,-12.296419
20.024,-10.322995
20.028,-7.30507
20.032,-4.857643
20.036,-2.853501
20.04,-0.353146
20.044,2.120537
20.048,3.19677
20.052,2.656308
20.056,1.885145
20.06,2.172833
20.064,2.933981
20.068,2.80463
20.072,1.408188
20.076,-0.652718
20.08,-2.602615
20.084,-3.862969
20.088,-4.245839
20.092,-4.526884
20.096,-5.596872
20.1,-6.785419
20.104,-6.432313
20.108,-4.018139
20.112,-1.256079
20.116,-0.219837
20.12,-1.242096
20.124,-3.427773
20.128,-5.424606
20.132,-5.815548
20.136,-4.123559
20.14,-1.784179
20.144,-1.276344
20.148,-3.407774
20.152,-6.580163
20.156,-8.952411
20.16,-10.380805
20.164,-11.79625
20.168,-13.186728
20.172,-13.876627
20.176,-14.037458
20.18,-14.877957
20.184,-17.232849
20.188,-20.073301
20.192,-21.550535
20.196,-21.049871
20.2,-19.451902
20.204,-17.870419
20.208,-16.498512
20.212,-14.888698
20.216,-12.375484
20.22,-8.302882
20.224,-2.751162
20.228,3.141205
20.232,7.714707
20.236,10.239205
20.24,11.668339
20.244,13.231378
20.248,14.730249
20.252,14.587233
20.256,11.669176
20.26,6.569739
20.264,0.811184
20.268,-4.155626
20.272,-7.708856
20.276,-10.030869
20.28,-11.312341
20.284,-11.858478
20.288,-12.54928
20.292,-14.281186
20.296,-16.334377
20.3,-16.573034
20.304,-14.06917
20.308,-9.969803
20.312,-6.167736
20.316,-3.924286
20.32,-3.688014
20.324,-5.275745
20.328,-7.340516
20.332,-8.267073
20.336,-8.045136
20.34,-8.067295
20.344,-8.558804
20.348,-7.599494
20.352,-4.211671
20.356,-0.094264
20.36,2.701072
20.364,3.39509
20.368,1.920381
20.372,-1.376682
20.376,-5.074205
20.38,-7.53952
20.384,-8.642057
20.388,-9.139504
20.392,-9.349962
20.396,-9.013215
20.4,-7.866323
20.404,-6.27934
20.408,-4.851563
20.412,-3.917731
20.416,-3.40392
20.42,-3.039921
20.424,-2.971642
20.428,-3.648716
20.432,-5.313554
20.436,-7.568874
20.44,-9.650449
20.444,-11.11109
20.448,-11.359776
20.452,-9.740106
20.456,-6.592478
20.46,-3.403222
20.464,-1.491192
20.468,-0.48189
20.472,0.809303
20.476,2.660815
20.48,4.442168
20.484,5.527596
20.488,5.78748
20.492,5.014081
20.496,3.023658
20.5,0.54528
20.504,-1.365699
20.508,-2.549664
20.512,-3.88058
20.516,-5.853005
20.52,-8.025902
20.524,-10.292857
20.528,-12.749441
20.532,-14.700053
20.536,-14.915223
20.54,-12.885939
20.544,-9.246511
20.548,-5.049291
20.552,-1.697763
20.556,-0.260989
20.56,-0.165027
20.564,-0.012739
20.568,0.785374
20.572,1.777578
20.576,2.691288
20.58,3.831364
20.584,5.139618
20.588,5.794264
20.592,4.775489
20.596,2.061569
20.6,-1.008549
20.604,-3.141567
20.608,-4.052958
20.612,-4.050651
20.616,-3.213231
20.62,-1.687596
20.624,-0.365603
20.628,0.115463
20.632,0.341658
20.636,0.920357
20.64,1.059129
20.644,-0.333269
20.648,-2.335698
20.652,-2.944155
20.656,-1.722938
20.66,0.124791
20.664,1.701902
20.668,3.153273
20.672,4.380146
20.676,4.416182
20.68,2.773062
20.684,0.414396
20.688,-0.980007
20.692,-0.654709
20.696,1.128462
20.7,3.69597
20.704,5.791675
20.708,6.520133
20.712,6.534361
20.716,7.158769
20.72,8.502192
20.724,9.348655
20.728,8.913956
20.732,7.319574
20.736,5.165097
20.74,3.316698
20.744,2.42708
20.748,2.491511
20.752,2.347833
20.756,0.709823
20.76,-1.83111
20.764,-3.155943
20.768,-2.201006
20.772,-0.184721
20.776,1.5003
20.78,3.073727
20.784,5.148325
20.788,7.612331
20.792,9.935871
20.796,11.988922
20.8,14.115328
20.804,16.321297
20.808,18.01568
20.812,18.548565
20.816,18.127934
20.82,17.629766
20.824,17.291937
20.828,16.87789
20.832,16.303934
20.836,15.570101
20.84,14.667336
20.844,13.745741
20.848,13.107832
20.852,12.635569
20.856,12.17921
20.86,12.182202
20.864,12.894923
20.868,13.810885
20.872,14.209208
20.876,13.81929
20.88,12.43681
20.884,9.644861
20.888,6.1354
20.892,3.917589
20.896,4.393443
20.9,6.793111
20.904,9.168843
20.908,10.87555
20.912,12.795901
20.916,15.542308
20.92,18.49909
20.924,20.625582
20.928,21.786909
20.932,22.382008
20.936,22.681183
20.94,22.979294
20.944,23.451382
20.948,23.719299
20.952,22.950806
20.956,21.081047
20.96,19.069962
20.964,17.529303
20.968,16.20899
20.972,14.607084
20.976,12.640594
20.98,10.545624
20.984,8.622637
20.988,7.621297
20.992,8.241085
20.996,10.232597
21,12.613903
21.004,14.642761
21.008,16.481369
21.012,18.495214
21.016,20.372816
21.02,21.546373
21.024,21.790977
21.028,21.036308
21.032,18.859917
21.036,15.475108
21.04,12.48296
21.044,11.090314
21.048,10.913068
21.052,10.941812
21.056,10.606547
21.06,9.719536
21.064,8.173429
21.068,6.264933
21.072,4.079171
21.076,1.10207
21.08,-2.571496
21.084,-5.481661
21.088,-6.048774
21.092,-4.358023
21.096,-1.53986
21.1,1.630873
21.104,4.45753
21.108,6.159454
21.112,6.329187
21.116,5.317603
21.12,3.965163
21.124,3.088664
21.128,3.129671
21.132,3.87887
21.136,5.150816
21.14,6.949263
21.144,8.574692
21.148,9.123937
21.152,8.678308
21.156,8.317238
21.16,8.677247
21.164,9.157751
21.168,8.691978
21.172,6.399712
21.176,2.030207
21.18,-3.979379
21.184,-10.818151
21.188,-16.931963
21.192,-20.61116
21.196,-21.580002
21.2,-21.403736
21.204,-21.64856
21.208,-22.20804
21.212,-22.351839
21.216,-21.865042
21.22,-20.611
21.224,-18.375082
21.228,-15.028116
21.232,-10.809498
21.236,-6.059127
21.24,-1.1107
21.244,3.156039
21.248,5.516911
21.252,5.164037
21.256,2.655302
21.26,-0.152548
21.264,-1.890354
21.268,-2.8455
21.272,-4.076086
21.276,-5.478275
21.28,-5.959738
21.284,-5.162226
21.288,-3.314886
21.292,-0.832685
21.296,1.1742
21.3,1.192198
21.304,-1.393871
21.308,-5.612837
21.312,-10.182986
21.316,-14.644479
21.32,-18.80686
21.324,-21.850733
21.328,-22.572124
21.332,-21.088722
21.336,-19.331306
21.34,-19.199852
21.344,-20.91555
21.348,-23.10676
21.352,-24.176451
21.356,-23.005505
21.36,-19.41551
21.364,-14.911068
21.368,-11.584866
21.372,-10.382532
21.376,-10.632605
21.38,-10.748966
21.384,-9.420064
21.388,-6.402734
21.392,-2.365767
21.396,2.656134
21.4,9.291331
21.404,16.56144
21.408,21.938606
21.412,23.889349
21.416,22.882727
21.42,19.627953
21.424,14.262988
21.428,7.750581
21.432,1.62888
21.436,-3.553848
21.44,-8.269977
21.444,-12.514903
21.448,-15.237761
21.452,-16.06625
21.456,-16.038319
21.46,-16.092535
21.464,-16.126062
21.468,-15.733591
21.472,-15.10719
21.476,-14.101236
21.48,-11.913391
21.484,-8.470422
21.488,-4.452219
21.492,-0.067027
21.496,4.976061
21.5,10.249155
21.504,14.486255
21.508,16.922379
21.512,17.33741
21.516,15.700535
21.52,12.630123
21.524,9.359439
21.528,7.134265
21.532,6.220291
21.536,5.71423
21.54,4.461535
21.544,2.054553
21.548,-0.452384
21.552,-1.354301
21.556,0.244966
21.56,3.780918
21.564,7.664743
21.568,10.458064
21.572,11.14249
21.576,9.715715
21.58,7.717604
21.584,6.759986
21.588,6.655892
21.592,5.653916
21.596,2.843551
21.6,-0.649516
21.604,-3.185938
21.608,-4.085937
21.612,-4.189656
21.616,-5.027219
21.62,-7.237039
21.624,-9.813252
21.628,-11.191826
21.632,-11.188969
21.636,-10.428878
21.64,-8.756104
21.644,-5.977186
21.648,-2.687501
21.652,0.490737
21.656,3.612088
21.66,6.242923
21.664,6.991081
21.668,5.61103
21.672,3.880177
21.676,3.875389
21.68,5.642474
21.684,6.879877
21.688,5.890993
21.692,3.498753
21.696,1.333801
21.7,-0.452409
21.704,-2.37866
21.708,-3.906672
21.712,-4.666899
21.716,-5.236909
21.72,-5.687703
21.724,-4.983559
21.728,-1.915862
21.732,3.240251
21.736,8.537476
21.74,11.89266
21.744,12.545719
21.748,11.126253
21.752,8.597282
21.756,6.042475
21.76,4.42261
21.764,3.675673
21.768,2.941558
21.772,1.434282
21.776,-0.631299
21.78,-2.027298
21.784,-2.107115
21.788,-1.785839
21.792,-2.46277
21.796,-4.124083
21.8,-5.793968
21.804,-7.58121
21.808,-10.251884
21.812,-13.452383
21.816,-15.82243
21.82,-16.730261
21.824,-16.718752
21.828,-16.134066
21.832,-14.824739
21.836,-12.676476
21.84,-9.837868
21.844,-6.471376
21.848,-2.375792
21.852,2.14393
21.856,5.910202
21.86,8.347962
21.864,10.152961
21.868,11.919418
21.872,12.935158
21.876,12.40801
21.88,10.723384
21.884,8.426648
21.888,5.156194
21.892,0.536625
21.896,-4.054594
21.9,-6.370995
21.904,-6.117508
21.908,-4.695139
21.912,-3.093447
21.916,-1.690464
21.92,-1.398828
21.924,-2.926185
21.928,-4.756832
21.932,-4.699527
21.936,-3.029449
21.94,-1.942077
21.944,-1.935109
21.948,-0.681515
21.952,3.382937
21.956,8.694238
21.96,12.732921
21.964,14.638594
21.968,14.693481
21.972,12.484511
21.976,7.830057
21.98,2.206249
21.984,-2.541598
21.988,-5.755527
21.992,-7.901956
21.996,-9.386164
22,-9.767423
22.004,-8.527108
22.008,-6.232121
22.012,-4.263382
22.016,-2.918592
22.02,-1.412712
22.024,0.02449
22.028,0.539864
22.032,0.256861
22.036,0.062592
22.04,0.213702
22.044,0.129883
22.048,-0.67415
22.052,-2.476147
22.056,-5.206001
22.06,-8.107287
22.064,-10.239672
22.068,-11.146302
22.072,-11.285897
22.076,-11.389049
22.08,-11.706444
22.084,-12.374863
22.088,-13.769216
22.092,-15.764694
22.096,-16.887424
22.1,-15.850465
22.104,-13.675577
22.108,-11.922704
22.112,-10.348908
22.116,-8.026643
22.12,-5.289508
22.124,-3.098207
22.128,-1.546685
22.132,-0.509607
22.136,-0.011194
22.14,0.411375
22.144,1.154769
22.148,1.857632
22.152,1.649068
22.156,0.306078
22.16,-1.442828
22.164,-2.628092
22.168,-2.472603
22.172,-1.298366
22.176,-0.772787
22.18,-2.38652
22.184,-5.764285
22.188,-8.884567
22.192,-10.327682
22.196,-10.273355
22.2,-9.790005
22.204,-9.977154
22.208,-10.985603
22.212,-12.13796
22.216,-12.839475
22.22,-12.857332
22.224,-11.956692
22.228,-9.933536
22.232,-7.298107
22.236,-4.670969
22.24,-1.914947
22.244,1.179069
22.248,4.278022
22.252,6.507413
22.256,7.182006
22.26,6.452265
22.264,5.025022
22.268,3.623886
22.272,2.562349
22.276,1.893291
22.28,1.274725
22.284,-0.055281
22.288,-2.063313
22.292,-3.717045
22.296,-4.049322
22.3,-3.274386
22.304,-2.767173
22.308,-3.347718
22.312,-4.27451
22.316,-4.074555
22.32,-2.006174
22.324,1.56709
22.328,5.579693
22.332,8.271161
22.336,8.463637
22.34,6.70067
22.344,4.155043
22.348,1.445538
22.352,-1.365086
22.356,-3.863544
22.36,-5.265506
22.364,-5.616878
22.368,-6.185652
22.372,-8.436073
22.376,-12.314636
22.38,-16.117245
22.384,-17.882479
22.388,-16.391191
22.392,-11.851268
22.396,-5.707498
22.4,-0.014147
22.404,3.418752
22.408,4.486048
22.412,4.646021
22.416,5.123876
22.42,5.805445
22.424,6.19583
22.428,6.830564
22.432,8.444256
22.436,10.787179
22.44,12.746958
22.444,13.056301
22.448,11.173781
22.452,7.507342
22.456,3.449749
22.46,0.512675
22.464,-0.920189
22.468,-1.290983
22.472,-1.253893
22.476,-1.508581
22.48,-2.464354
22.484,-3.596848
22.488,-3.689862
22.492,-2.549333
22.496,-1.027769
22.5,0.474587
22.504,2.281489
22.508,4.583691
22.512,6.986422
22.516,9.253723
22.52,11.445508
22.524,13.20771
22.528,13.978024
22.532,13.428748
22.536,11.713379
22.54,9.242773
22.544,6.370559
22.548,3.204264
22.552,-0.49787
22.556,-4.291013
22.56,-6.766441
22.564,-7.359686
22.568,-7.191971
22.572,-7.57989
22.576,-8.580136
22.58,-9.765191
22.584,-10.719934
22.588,-10.312027
22.592,-7.679913
22.596,-3.622191
22.6,0.343985
22.604,3.839807
22.608,7.754179
22.612,12.5034
22.616,17.226372
22.62,20.571609
22.624,21.720659
22.628,20.59646
22.632,17.330898
22.636,12.727384
22.64,8.563171
22.644,6.029424
22.648,4.657943
22.652,3.543031
22.656,2.987597
22.66,3.736236
22.664,5.461493
22.668,7.314419
22.672,8.816236
22.676,9.991028
22.68,11.080281
22.684,12.170312
22.688,13.058166
22.692,13.290421
22.696,12.75092
22.7,11.629624
22.704,9.773636
22.708,7.328073
22.712,5.330486
22.716,4.707495
22.72,4.654314
22.724,3.294283
22.728,0.282931
22.732,-3.159631
22.736,-6.300808
22.74,-9.567726
22.744,-13.054609
22.748,-15.379302
22.752,-15.388021
22.756,-13.84366
22.76,-12.356957
22.764,-11.224691
22.768,-9.480399
22.772,-7.127782
22.776,-4.928084
22.78,-2.441493
22.784,1.477457
22.788,6.502717
22.792,10.478673
22.796,11.991048
22.8,12.095017
22.804,12.56789
22.808,13.451085
22.812,13.093067
22.816,10.839503
22.82,7.596942
22.824,3.568892
22.828,-1.768901
22.832,-7.646082
22.836,-11.845409
22.84,-13.102218
22.844,-12.059321
22.848,-9.661541
22.852,-6.403865
22.856,-2.534669
22.86,1.375582
22.864,4.339412
22.868,6.013628
22.872,6.99052
22.876,7.805561
22.88,7.998598
22.884,6.86148
22.888,4.785197
22.892,2.874134
22.896,1.951864
22.9,1.769309
22.904,1.431172
22.908,0.817865
22.912,0.154017
22.916,-1.308943
22.92,-4.542038
22.924,-8.912623
22.928,-12.640165
22.932,-14.927012
22.936,-15.614565
22.94,-14.049887
22.944,-9.939847
22.948,-4.449276
22.952,0.357276
22.956,3.577777
22.96,6.183491
22.964,9.536453
22.968,14.062348
22.972,18.909422
22.976,22.796606
22.98,24.997694
22.984,25.708647
22.988,25.923573
22.992,26.408319
22.996,26.982565
23,26.625542
23.004,24.416866
23.008,20.585117
23.012,15.896305
23.016,11.217547
23.02,7.754347
23.024,6.170643
23.028,5.441907
23.032,3.667562
23.036,0.778679
23.04,-1.465306
23.044,-2.516238
23.048,-3.72346
23.052,-6.169891
23.056,-9.251453
23.06,-11.907852
23.064,-13.525241
23.068,-12.784054
23.072,-8.278223
23.076,-0.944756
23.08,5.608223
23.084,8.154712
23.088,6.580881
23.092,2.856823
23.096,-1.123171
23.1,-4.59854
23.104,-7.967375
23.108,-11.690289
23.112,-15.371463
23.116,-17.648399
23.12,-17.597021
23.124,-16.152218
23.128,-15.02556
23.132,-14.963983
23.136,-15.610433
23.14,-16.355898
23.144,-16.250671
23.148,-14.092642
23.152,-10.428343
23.156,-7.542496
23.16,-6.592866
23.164,-6.404404
23.168,-5.367925
23.172,-3.542111
23.176,-1.977129
23.18,-1.270694
23.184,-1.456429
23.188,-2.370057
23.192,-3.953394
23.196,-5.956414
23.2,-8.106065
23.204,-10.270959
23.208,-11.858857
23.212,-12.239091
23.216,-11.500561
23.22,-10.481978
23.224,-10.279181
23.228,-11.491006
23.232,-13.685363
23.236,-15.327585
23.24,-15.161325
23.244,-13.424602
23.248,-11.03651
23.252,-8.836988
23.256,-7.191587
23.26,-5.830858
23.264,-4.206426
23.268,-1.986622
23.272,0.432877
23.276,2.542911
23.28,4.284609
23.284,5.533978
23.288,5.72836
23.292,4.116025
23.296,1.027025
23.3,-1.914524
23.304,-3.415339
23.308,-3.462378
23.312,-2.817041
23.316,-1.971183
23.32,-1.32557
23.324,-1.50129
23.328,-2.379745
23.332,-2.903241
23.336,-2.166639
23.34,-0.39233
23.344,1.623729
23.348,3.921984
23.352,6.713814
23.356,9.332884
23.36,11.054772
23.364,11.976557
23.368,12.130928
23.372,10.773225
23.376,7.994864
23.38,5.079085
23.384,2.632237
23.388,0.294538
23.392,-2.271792
23.396,-4.964435
23.4,-7.316776
23.404,-8.372948
23.408,-7.052774
23.412,-3.620029
23.416,0.316107
23.42,3.199871
23.424,4.501801
23.428,4.755909
23.432,4.666871
23.436,4.311554
23.44,2.809008
23.444,-0.826136
23.448,-6.15343
23.452,-11.631581
23.456,-15.908344
23.46,-18.538898
23.464,-19.941746
23.468,-20.716145
23.472,-21.082027
23.476,-20.510771
23.48,-18.188385
23.484,-13.929764
23.488,-8.326748
23.492,-2.470858
23.496,2.735501
23.5,6.891694
23.504,9.960691
23.508,12.35317
23.512,14.304562
23.516,15.650712
23.52,16.46945
23.524,17.086277
23.528,17.274286
23.532,15.82811
23.536,12.081973
23.54,7.086278
23.544,2.612339
23.548,-0.068111
23.552,-0.523185
23.556,1.226935
23.56,4.363418
23.564,7.065289
23.568,8.177936
23.572,8.16897
23.576,8.102475
23.58,8.517405
23.584,9.645427
23.588,11.598555
23.592,13.523335
23.596,14.542638
23.6,14.905272
23.604,14.855717
23.608,13.948833
23.612,12.082139
23.616,9.955043
23.62,7.727614
23.624,4.61393
23.628,0.506314
23.632,-3.68222
23.636,-6.861144
23.64,-8.751938
23.644,-9.971217
23.648,-10.955749
23.652,-11.605023
23.656,-11.666103
23.66,-10.94236
23.664,-9.010518
23.668,-5.243879
23.672,-0.280697
23.676,4.037598
23.68,6.569566
23.684,7.517402
23.688,7.136985
23.692,5.195881
23.696,2.495617
23.7,0.80651
23.704,0.896906
23.708,2.404811
23.712,4.870131
23.716,8.095483
23.72,11.606627
23.724,14.352013
23.728,15.307687
23.732,14.253304
23.736,12.146173
23.74,9.856833
23.744,7.07389
23.748,3.359888
23.752,-0.933907
23.756,-4.935514
23.76,-7.754155
23.764,-8.933698
23.768,-8.766841
23.772,-8.306966
23.776,-8.361506
23.78,-8.94872
23.784,-9.404685
23.788,-8.39318
23.792,-5.137881
23.796,-0.711038
23.8,2.799611
23.804,4.437434
23.808,4.933015
23.812,4.75877
23.816,3.508834
23.82,1.073248
23.824,-1.731803
23.828,-3.645527
23.832,-3.968
23.836,-2.705635
23.84,-0.371718
23.844,1.866737
23.848,2.704121
23.852,1.576142
23.856,-0.876347
23.86,-3.529541
23.864,-5.638234
23.868,-6.906372
23.872,-7.583491
23.876,-8.201077
23.88,-8.922958
23.884,-9.252352
23.888,-8.289843
23.892,-5.791903
23.896,-2.397819
23.9,0.879994
23.904,3.240716
23.908,4.612729
23.912,5.175085
23.916,5.106462
23.92,4.990947
23.924,5.649408
23.928,7.13522
23.932,8.41613
23.936,8.771248
23.94,8.275173
23.944,7.109169
23.948,5.457775
23.952,3.384869
23.956,0.760957
23.96,-2.707615
23.964,-7.318126
23.968,-12.839895
23.972,-17.821461
23.976,-19.674786
23.98,-17.103827
23.984,-12.212614
23.988,-8.177467
23.992,-5.862568
23.996,-4.149612
24,-2.493713
24.004,-0.884395
24.008,1.435675
24.012,4.322235
24.016,5.768026
24.02,4.228898
24.024,0.401515
24.028,-3.913307
24.032,-7.636948
24.036,-10.407618
24.04,-12.142337
24.044,-12.621889
24.048,-11.261945
24.052,-8.07399
24.056,-3.912768
24.06,0.384338
24.064,4.328726
24.068,7.117875
24.072,7.600587
24.076,5.915674
24.08,3.735947
24.084,2.116187
24.088,0.428553
24.092,-2.030591
24.096,-4.255805
24.1,-4.691703
24.104,-3.273286
24.108,-1.110547
24.112,0.948758
24.116,2.77907
24.12,4.109457
24.124,4.302872
24.128,3.392194
24.132,2.187314
24.136,1.490362
24.14,1.663398
24.144,2.807031
24.148,4.74814
24.152,6.47349
24.156,6.644579
24.16,4.750436
24.164,1.604884
24.168,-1.213161
24.172,-2.914645
24.176,-4.023018
24.18,-5.337047
24.184,-6.845916
24.188,-7.920931
24.192,-8.703972
24.196,-9.918694
24.2,-11.70683
24.204,-13.695642
24.208,-15.823787
24.212,-18.14588
24.216,-19.862379
24.22,-20.016848
24.224,-18.580088
24.228,-15.815423
24.232,-11.936539
24.236,-7.55242
24.24,-3.816029
24.244,-1.601324
24.248,-0.621826
24.252,0.102277
24.256,1.259716
24.26,2.647018
24.264,3.530309
24.268,3.637318
24.272,3.212531
24.276,2.729766
24.28,2.643109
24.284,2.808827
24.288,2.345376
24.292,0.500187
24.296,-2.063422
24.3,-3.886437
24.304,-4.408567
24.308,-3.880398
24.312,-2.70599
24.316,-1.23717
24.32,0.416872
24.324,2.211361
24.328,3.70306
24.332,4.099597
24.336,3.285103
24.34,1.692638
24.344,-0.450365
24.348,-2.349003
24.352,-2.88562
24.356,-2.247499
24.36,-1.848155
24.364,-2.326772
24.368,-2.687037
24.372,-2.209568
24.376,-1.649698
24.38,-2.128919
24.384,-3.805102
24.388,-5.904187
24.392,-7.728824
24.396,-8.486134
24.4,-7.055776
24.404,-3.216211
24.408,1.73145
24.412,5.892745
24.416,8.438963
24.42,9.744748
24.424,10.120007
24.428,9.629023
24.432,8.53088
24.436,7.495077
24.44,7.167176
24.444,7.812616
24.448,9.50532
24.452,11.879535
24.456,13.968492
24.46,14.220584
24.464,11.489618
24.468,6.550343
24.472,1.517627
24.476,-1.803304
24.48,-2.695007
24.484,-1.329804
24.488,1.488341
24.492,4.442816
24.496,6.637949
24.5,7.958712
24.504,8.395621
24.508,7.72127
24.512,5.787009
24.516,3.240513
24.52,1.435916
24.524,1.362091
24.528,2.568212
24.532,3.200529
24.536,1.924388
24.54,-0.925891
24.544,-4.378394
24.548,-7.726568
24.552,-10.349866
24.556,-11.580262
24.56,-11.376928
24.564,-10.21451
24.568,-8.007096
24.572,-4.330577
24.576,0.565333
24.58,5.564575
24.584,9.736176
24.588,13.520078
24.592,17.963924
24.596,23.162106
24.6,27.812414
24.604,30.267311
24.608,29.566353
24.612,25.237097
24.616,17.64974
24.62,8.825311
24.624,1.754614
24.628,-1.898756
24.632,-3.196093
24.636,-3.864046
24.64,-4.423026
24.644,-4.958181
24.648,-5.628735
24.652,-5.947443
24.656,-4.796524
24.66,-2.214242
24.664,0.150049
24.668,1.296283
24.672,2.104827
24.676,4.188544
24.68,7.888444
24.684,11.91481
24.688,14.692421
24.692,15.391947
24.696,14.526208
24.7,13.212123
24.704,11.917643
24.708,10.443181
24.712,8.429659
24.716,5.836411
24.72,2.776726
24.724,-0.210192
24.728,-2.003118
24.732,-2.322559
24.736,-2.30279
24.74,-2.816608
24.744,-2.988849
24.748,-1.492817
24.752,1.251108
24.756,3.86001
24.76,5.799796
24.764,7.34081
24.768,8.261203
24.772,7.770463
24.776,6.07312
24.78,4.560526
24.784,3.972207
24.788,3.57493
24.792,2.2243
24.796,-0.089923
24.8,-2.530747
24.804,-4.427277
24.808,-5.084663
24.812,-4.046171
24.816,-2.193583
24.82,-1.538175
24.824,-3.00288
24.828,-5.154184
24.832,-6.047091
24.836,-4.667883
24.84,-0.975814
24.844,3.863905
24.848,8.019872
24.852,10.621668
24.856,12.361628
24.86,13.448451
24.864,12.745536
24.868,9.948153
24.872,6.250372
24.876,2.667026
24.88,-0.913864
24.884,-4.91298
24.888,-8.867391
24.892,-11.838964
24.896,-13.303358
24.9,-13.341477
24.904,-12.085718
24.908,-9.828901
24.912,-7.861276
24.916,-7.376446
24.92,-7.815165
24.924,-7.614786
24.928,-5.95257
24.932,-3.536567
24.936,-1.516309
24.94,-0.291327
24.944,0.438078
24.948,0.938097
24.952,1.158452
24.956,1.324991
24.96,1.598033
24.964,1.286881
24.968,-0.505634
24.972,-3.942954
24.976,-7.722879
24.98,-9.578706
24.984,-8.374187
24.988,-5.690457
24.992,-4.418731
24.996,-5.146152
25,-5.744406
25.004,-4.629583
25.008,-2.404137
